476.5,713.75,831.375,889.6875,919.84375,934.921875,942.960938,945.480469,945.740234,944.870117,945.935059,946.467529,946.733765,944.866882,944.433441,943.716721,943.35836,943.67918,943.83959,945.419795,945.709898,945.854949,945.427474,947.713737,949.356869,951.178434,951.589217,952.794609,954.897304,957.948652,960.474326,962.237163,963.618582,963.809291,964.904645,967.952323,970.976161,971.988081,972.49404,972.24702,972.62351,974.311755,975.655878,975.327939,975.663969,975.331985,975.665992,977.332996,978.666498,977.333249,976.666625,975.333312,975.666656,978.333328,979.666664,979.333332,978.166666,977.583333,976.291667,977.145833,977.572917,978.286458,977.143229,975.071615,974.535807,975.267904,975.633952,974.816976,973.408488,972.204244,971.102122,971.051061,972.52553,971.762765,970.381383,970.190691,969.595346,970.797673,972.398836,972.699418,972.849709,971.924855,971.462427,971.231214,972.115607,971.057803,969.028902,967.014451,967.007225,968.003613,968.501806,968.750903,967.375452,966.187726,965.593863,965.796931,967.398466,967.699233,966.349616,965.674808,964.837404,964.918702,964.959351,965.479676,965.239838,965.119919,966.059959,966.52998,967.76499,968.882495,968.441247,969.720624,970.860312,973.930156,976.465078,977.732539,977.866269,978.433135,978.216567,981.108284,983.054142,985.527071,987.263535,987.131768,988.565884,991.282942,993.141471,992.070735,990.535368,988.267684,987.133842,989.566921,992.28346,993.14173,993.070865,994.535433,997.267716,999.633858,996.816929,991.408465,986.204232,982.102116,977.551058,976.775529,973.387765,970.193882,968.096941,966.048471,966.024235,966.012118,966.506059,966.253029,965.626515,963.313257,963.156629,964.078314,964.039157,964.019579,963.509789,960.754895,961.377447,962.688724,963.844362,963.922181,962.46109,961.230545,962.115273,962.557636,962.278818,962.139409,959.569705,956.784852,950.892426,945.446213,939.723107,932.861553,926.930777,926.965388,939.982694,966.491347,997.245674,1035.62284,1084.81142,1138.90571,1185.45285,1214.72643,1214.36321,1176.68161,1107.8408,1033.9204,980.460201,956.2301,952.61505,954.307525,953.653763,950.826881,950.413441,951.20672,952.10336,952.55168,951.77584,949.88792,950.44396,949.72198,949.36099,949.180495,947.090248,946.045124,945.522562,947.761281,948.88064,949.44032,949.22016,948.61008,948.80504,949.90252,950.95126,950.97563,950.487815,948.743908,947.871954,948.935977,950.467988,950.733994,950.866997,949.933499,948.966749,949.483375,948.741687,948.870844,947.435422,947.217711,947.608855,947.304428,949.652214,949.326107,948.663053,947.831527,948.415763,950.707882,950.853941,949.92697,950.463485,949.231743,949.615871,949.807936,951.903968,951.451984,952.725992,950.862996,950.431498,951.215749,951.607874,951.303937,950.651969,948.825984,948.412992,948.706496,950.353248,949.676624,949.338312,947.169156,947.084578,948.042289,949.021145,948.510572,947.255286,946.627643,946.313822,947.656911,949.328455,949.664228,949.832114,949.416057,950.208028,950.604014,951.802007,951.901004,951.950502,951.475251,951.737625,952.868813,956.434406,958.717203,959.858602,961.429301,964.21465,966.607325,968.803663,969.401831,970.700916,971.350458,973.675229,975.337614,977.668807,978.334404,978.167202,978.583601,978.7918,980.3959,980.69795,980.848975,980.424488,979.212244,979.106122,979.553061,979.77653,980.388265,980.194133,979.597066,979.798533,979.399267,980.199633,979.099817,976.549908,975.774954,977.387477,978.193739,979.096869,979.048435,978.524217,977.262109,977.631054,979.315527,979.657764,977.828882,977.914441,976.45722,975.72861,975.864305,975.932153,974.466076,974.233038,972.116519,972.55826,973.77913,973.889565,972.444782,970.222391,968.111196,967.555598,968.777799,968.388899,968.69445,968.847225,966.923612,967.461806,967.230903,969.115452,969.557726,968.778863,967.389431,968.694716,970.347358,971.173679,970.586839,968.79342,968.39671,967.198355,969.099177,970.049589,970.524794,969.762397,968.881199,970.440599,971.2203,972.11015,972.055075,970.527537,969.263769,970.131884,973.565942,975.782971,977.391486,977.195743,977.597871,979.298936,982.649468,984.824734,986.412367,988.206183,989.103092,991.551546,993.275773,996.637886,997.818943,998.909472,996.954736,994.477368,993.738684,993.869342,994.434671,993.717335,992.858668,992.429334,993.214667,997.607333,1000.30367,1000.15183,995.075917,991.537958,988.268979,986.63449,984.317245,981.158622,977.079311,975.539656,974.269828,973.634914,971.317457,970.158728,969.579364,968.289682,968.644841,969.822421,969.91121,968.455605,966.227803,965.113901,965.056951,966.028475,965.514238,963.757119,962.378559,963.18928,963.09464,965.04732,966.02366,966.51183,964.755915,963.377957,959.688979,954.344489,948.172245,940.586122,931.793061,926.896531,932.948265,948.974133,969.487066,989.743533,1010.87177,1039.93588,1077.46794,1122.73397,1165.36699,1199.18349,1221.59175,1226.29587,1202.14794,1147.57397,1077.78698,1014.39349,973.696746,958.848373,958.924187,962.462093,962.231047,959.615523,957.807762,957.403881,957.20194,957.60097,956.300485,955.150243,954.075121,954.537561,955.26878,956.63439,956.317195,955.158598,953.079299,952.539649,953.769825,956.884912,957.442456,957.221228,957.110614,957.555307,957.777654,958.388827,958.194413,956.597207,953.798603,952.899302,953.949651,955.474825,955.237413,952.618706,951.309353,951.654677,953.327338,953.663669,953.331835,953.165917,951.582959,949.791479,951.39574,950.69787,950.348935,951.174467,951.587234,951.793617,953.396808,954.698404,954.349202,953.674601,952.337301,952.16865,953.084325,953.542163,953.271081,951.635541,951.31777,951.658885,951.829443,952.414721,952.207361,950.10368,949.55184,948.27592,948.13796,949.06898,949.03449,948.517245,947.258623,947.629311,947.314656,947.157328,948.078664,948.539332,948.269666,949.134833,949.067416,948.033708,948.016854,947.008427,947.004214,949.502107,951.751053,953.375527,954.187763,954.593882,955.296941,957.14847,961.074235,963.537118,964.268559,965.634279,966.31714,968.15857,970.579285,971.289642,971.644821,971.822411,969.911205,970.455603,972.227801,975.113901,976.55695,977.278475,976.139238,975.069619,974.534809,975.267405,975.633702,974.816851,973.408426,973.704213,975.352106,977.676053,978.338027,976.669013,974.834507,973.917253,973.458627,972.729313,972.864657,970.432328,968.216164,969.108082,969.554041,972.777021,972.88851,970.944255,969.972128,969.986064,969.993032,970.496516,970.248258,969.624129,968.812064,967.906032,967.953016,967.976508,966.488254,963.744127,961.872064,961.936032,963.468016,963.734008,964.367004,965.183502,962.591751,961.295875,960.647938,960.323969,961.661984,961.830992,961.415496,961.707748,962.853874,963.426937,963.713469,961.856734,959.428367,959.214184,961.107092,961.553546,961.776773,961.388386,960.694193,961.347097,962.673548,963.836774,963.918387,962.459194,962.229597,961.614798,960.807399,962.9037,962.95185,962.475925,961.237962,961.618981,963.309491,965.654745,966.827373,967.913686,969.456843,970.728422,974.364211,976.682105,978.841053,978.420526,978.210263,979.605132,981.302566,984.651283,985.825641,985.412821,984.20641,984.603205,984.301603,985.150801,983.575401,981.7877,980.39385,982.696925,983.848463,984.924231,984.462116,984.231058,985.615529,987.807764,989.903882,989.451941,985.725971,981.862985,977.431493,974.215746,970.607873,968.303937,967.151968,964.075984,961.537992,960.268996,960.134498,960.067249,959.533625,957.766812,955.883406,955.441703,955.220852,956.610426,957.305213,958.152606,957.076303,956.538152,956.269076,957.634538,957.817269,957.408634,956.204317,956.102159,957.051079,958.52554,959.26277,958.631385,956.815692,954.407846,950.203923,946.101962,940.050981,934.52549,927.262745,920.131373,918.065686,925.032843,943.016422,966.508211,996.254105,1035.12705,1081.56353,1129.78176,1170.89088,1194.94544,1192.47272,1157.23636,1097.11818,1033.05909,982.529545,952.764773,939.382386,937.191193,940.595597,942.797798,942.398899,943.69945,942.349725,943.174862,943.587431,943.793716,943.396858,941.198429,940.099214,940.549607,940.774804,942.887402,943.443701,943.22185,944.110925,943.555463,944.277731,944.138866,944.569433,942.784716,940.892358,941.446179,942.72309,942.861545,942.930772,941.965386,940.482693,940.241347,941.120673,941.060337,941.030168,939.515084,937.257542,938.128771,937.564386,938.782193,939.391096,938.695548,937.347774,938.173887,939.586944,941.793472,941.896736,940.948368,939.974184,939.987092,940.993546,941.496773,940.748386,939.874193,938.437097,938.218548,938.109274,939.554637,939.277319,939.138659,937.56933,938.284665,939.642332,940.821166,940.910583,940.455292,937.727646,936.363823,938.181911,939.090956,939.045478,937.522739,936.761369,935.880685,936.940342,936.470171,934.735086,932.867543,931.433771,931.216886,933.108443,932.554221,931.777111,930.888555,929.444278,928.722139,929.361069,931.680535,931.840267,932.420134,933.210067,936.605033,940.802517,944.901258,946.450629,949.225315,950.612657,953.306329,957.153164,961.076582,963.038291,964.519146,964.259573,965.629786,966.814893,969.407447,971.203723,971.601862,971.800931,972.400465,973.200233,975.100116,976.050058,977.025029,976.012515,976.506257,978.253129,979.126564,977.563282,976.281641,975.640821,975.32041,976.660205,977.330103,976.665051,974.832526,973.916263,972.958131,973.979066,974.489533,974.244766,972.622383,972.311192,972.655596,973.327798,973.663899,973.831949,972.915975,971.957987,970.978994,970.989497,971.994748,970.997374,970.998687,968.999344,969.999672,971.499836,972.749918,971.874959,970.437479,969.71874,969.85937,967.929685,967.464842,967.232421,966.116211,965.058105,964.529053,965.764526,967.882263,967.941132,966.970566,964.985283,965.492641,966.246321,967.62316,967.81158,966.90579,965.952895,965.976448,966.988224,967.494112,967.247056,968.123528,968.061764,969.030882,970.015441,970.50772,970.25386,970.62693,969.813465,968.906733,968.953366,969.976683,971.488342,970.244171,969.122085,971.561043,973.780521,975.390261,977.19513,977.097565,976.048783,978.024391,980.512196,982.756098,984.878049,984.939024,984.969512,986.484756,989.742378,991.871189,993.935595,994.467797,994.233899,994.616949,994.808475,994.404237,993.702119,992.351059,990.67553,991.337765,993.668882,994.834441,992.917221,990.45861,990.229305,992.114653,996.057326,1000.52866,1000.76433,996.882166,989.941083,985.970541,982.985271,981.492635,978.746318,974.373159,969.686579,968.34329,968.171645,968.085822,968.542911,968.271456,966.135728,966.567864,967.283932,967.141966,966.570983,966.285491,964.142746,962.571373,962.285686,962.642843,963.321422,963.160711,962.580355,961.290178,962.645089,964.322544,963.661272,962.330636,959.165318,956.582659,952.29133,947.645665,944.322832,937.661416,930.330708,928.165354,934.082677,952.041339,977.020669,1004.51033,1038.75517,1084.37758,1134.18879,1182.0944,1218.5472,1239.2736,1237.6368,1206.3184,1147.6592,1078.8296,1016.4148,973.7074,952.8537,948.42685,950.213425,954.106712,956.053356,954.526678,952.763339,953.88167,954.440835,955.220417,955.610209,954.305104,953.152552,952.576276,951.788138,953.394069,953.197035,951.598517,949.799259,950.899629,952.449815,952.724907,951.862454,950.931227,949.965613,950.482807,949.741403,949.870702,951.435351,950.217675,949.108838,948.554419,948.777209,950.388605,951.194302,951.597151,951.298576,950.649288,951.324644,952.162322,952.581161,953.29058,952.14529,952.572645,952.786323,953.893161,954.446581,953.72329,951.361645,950.680823,950.840411,952.420206,951.710103,950.855051,949.927526,949.963763,950.481881,951.740941,949.87047,948.435235,946.717618,947.358809,948.179404,949.589702,949.294851,948.147426,948.073713,949.536856,950.768428,953.384214,953.192107,952.596054,951.298027,950.149013,951.074507,952.537253,951.768627,950.884313,947.942157,948.971078,949.485539,949.74277,949.871385,948.435692,947.717846,947.358923,948.179462,948.589731,949.294865,948.647433,948.823716,949.911858,950.955929,952.977965,954.488982,955.244491,956.122246,958.561123,961.280561,964.140281,967.57014,969.78507,971.392535,972.696268,975.348134,977.174067,978.587033,978.293517,977.646758,978.323379,979.16169,978.580845,979.790422,979.395211,978.197606,979.598803,979.799401,980.899701,980.44985,980.224925,979.112463,978.556231,979.778116,981.889058,981.944529,980.972264,980.486132,979.743066,980.371533,980.685767,981.342883,979.671442,978.335721,977.66786,977.33393,977.666965,979.333483,977.666741,975.833371,973.416685,975.208343,976.604171,976.302086,975.651043,973.825521,975.412761,974.70638,976.35319,977.676595,975.838298,975.419149,975.709574,975.854787,975.927394,975.963697,974.481848,972.740924,971.870462,972.435231,973.217616,972.108808,970.554404,968.777202,968.888601,969.9443,970.47215,969.236075,968.118038,966.059019,965.529509,966.764755,967.382377,968.191189,967.595594,966.797797,967.398899,968.199449,969.599725,970.299862,970.649931,969.824966,968.912483,969.456241,969.228121,971.11406,972.05703,972.028515,973.514258,976.257129,978.628564,980.814282,981.407141,981.203571,982.101785,983.550893,983.775446,984.387723,985.693862,986.346931,988.673465,990.836733,993.918366,994.959183,996.479592,995.239796,995.619898,995.309949,996.154974,995.077487,994.538744,994.269372,995.634686,995.317343,997.158671,1000.07934,1001.03967,998.519834,993.259917,989.129958,985.564979,983.28249,980.141245,977.570622,974.285311,972.142656,971.571328,970.785664,969.892832,969.446416,968.723208,969.861604,970.430802,970.215401,968.6077,966.80385,966.901925,966.950963,967.475481,966.737741,966.86887,964.434435,964.217218,965.108609,965.054304,964.027152,962.513576,961.756788,962.378394,960.189197,956.594599,950.797299,945.89865,942.449325,939.724662,934.862331,927.431166,920.715583,918.857791,921.428896,934.214448,954.107224,979.053612,1009.52681,1047.7634,1094.8817,1145.44085,1189.22043,1217.61021,1221.80511,1194.40255,1135.70128,1066.35064,1006.67532,971.83766,956.91883,954.459415,954.729707,956.364854,957.682427,957.841213,958.420607,957.710303,954.355152,953.677576,955.338788,956.669394,955.834697,955.417348,955.208674,954.604337,954.302169,954.651084,954.825542,953.412771,953.706386,954.353193,954.676596,955.338298,955.169149,955.084575,954.042287,954.521144,954.760572,955.880286,955.940143,955.470071,954.735036,954.367518,955.183759,956.091879,956.04594,957.52297,957.261485,957.130742,958.565371,959.282686,959.141343,958.070671,957.035336,955.517668,955.758834,956.879417,957.439708,955.719854,954.859927,954.429964,954.714982,955.857491,955.428745,954.214373,951.107186,951.053593,952.026797,954.013398,955.006699,953.50335,953.251675,953.625837,954.312919,956.156459,956.07823,955.039115,953.519557,952.259779,953.129889,953.564945,952.782472,952.391236,951.695618,951.847809,952.423905,952.711952,953.355976,953.177988,951.088994,950.544497,951.272249,953.636124,954.318062,954.159031,952.579516,952.289758,953.644879,954.322439,954.16122,954.08061,953.540305,954.270152,955.135076,958.067538,960.033769,961.016885,962.008442,964.504221,968.252111,972.126055,974.563028,975.281514,975.640757,977.320378,978.160189,979.580095,979.790047,980.395024,980.197512,980.098756,981.049378,982.524689,982.262344,983.131172,981.565586,981.282793,982.141397,982.570698,982.285349,981.642675,979.821337,980.410669,982.205334,983.102667,984.051334,983.525667,982.762833,982.881417,982.440708,982.720354,983.360177,983.180089,981.590044,980.295022,980.647511,979.823756,979.911878,979.955939,977.977969,976.488985,977.244492,978.122246,978.561123,979.280562,977.640281,976.32014,975.66007,976.330035,977.165018,976.082509,975.041254,974.520627,974.760314,974.880157,974.940078,974.970039,973.98502,974.49251,974.246255,974.623127,974.311564,974.155782,973.577891,972.288945,971.144473,972.572236,971.286118,971.143059,969.57153,968.785765,969.892882,971.446441,972.223221,971.11161,970.555805,970.277903,971.138951,972.069476,973.034738,971.017369,970.008684,970.504342,971.252171,972.126086,972.563043,971.781521,971.390761,971.69538,971.34769,972.173845,973.086923,973.043461,973.521731,973.760865,974.880433,976.440216,978.220108,978.610054,978.805027,979.902514,981.951257,985.475628,987.737814,988.368907,987.184454,986.592227,987.796113,989.898057,991.949028,994.474514,994.737257,995.868629,997.934314,997.967157,997.983579,995.991789,993.995895,992.997947,993.998974,995.499487,996.249743,995.124872,993.562436,994.781218,998.890609,1001.9453,1002.47265,998.236326,991.618163,986.809082,984.404541,983.70227,981.351135,977.175568,974.087784,971.543892,970.271946,969.635973,968.317986,968.158993,967.079497,966.039748,966.019874,967.009937,967.504969,966.752484,966.376242,966.188121,966.094061,967.04703,966.523515,966.761758,965.880879,964.940439,964.97022,964.98511,964.992555,962.496277,958.248139,955.124069,952.062035,949.031017,947.015509,944.507754,942.753877,941.376939,935.688469,927.844235,921.422117,921.711059,931.855529,952.427765,978.713882,1011.85694,1055.92847,1106.46424,1152.23212,1185.11606,1195.55803,1172.77901,1116.38951,1049.69475,992.347377,959.673688,949.836844,951.418422,953.709211,952.354606,949.677303,949.338651,950.669326,952.334663,953.667331,954.333666,952.666833,950.833416,950.916708,951.458354,951.229177,951.114589,951.057294,951.028647,952.514324,954.257162,954.128581,952.56429,951.782145,951.391073,951.695536,950.847768,949.923884,948.961942,948.480971,947.740486,948.870243,951.435121,951.717561,950.85878,949.42939,949.714695,950.857348,953.928674,953.464337,952.732168,950.366084,950.683042,951.341521,951.670761,952.33538,950.16769,948.583845,948.791923,949.395961,949.697981,948.84899,947.924495,946.462248,946.731124,948.365562,950.182781,951.09139,951.045695,950.022848,949.511424,950.255712,951.627856,951.813928,951.406964,950.703482,951.351741,951.67587,952.837935,953.418968,952.709484,951.854742,952.927371,953.463685,952.731843,953.365921,952.182961,950.59148,950.29574,949.64787,949.323935,948.161968,946.080984,944.540492,943.770246,944.885123,944.942561,945.971281,945.98564,944.99282,943.99641,944.998205,946.999103,947.999551,948.499776,948.749888,950.374944,952.687472,956.343736,958.671868,959.835934,960.417967,961.208983,963.604492,965.802246,967.401123,967.200561,967.100281,968.05014,971.52507,971.762535,971.881268,971.440634,971.720317,971.860158,973.430079,975.71504,976.35752,975.17876,974.58938,974.79469,975.397345,977.198672,977.599336,976.799668,974.899834,974.449917,974.224959,975.112479,974.55624,973.27812,972.13906,971.56953,973.284765,975.142382,975.571191,974.285596,972.642798,970.821399,970.910699,971.45535,971.227675,971.113837,969.556919,969.778459,970.38923,971.194615,971.597307,971.798654,970.899327,968.949663,968.974832,967.987416,967.993708,966.496854,965.248427,966.124213,967.062107,967.031053,966.015527,964.007763,962.003882,962.001941,963.00097,963.500485,963.750243,962.875121,961.937561,961.46878,962.23439,963.117195,964.058598,962.529299,961.264649,962.132325,964.066162,965.033081,964.016541,962.50827,960.754135,961.377068,961.688534,963.844267,963.422133,962.711067,959.355533,958.677767,959.838883,960.919442,961.959721,961.97986,960.98993,961.994965,963.497483,964.248741,964.624371,964.812185,963.906093,963.953046,964.976523,965.988262,966.494131,965.247065,963.623533,964.311766,964.655883,966.827942,967.913971,967.456985,967.228493,967.114246,968.557123,970.778562,972.889281,973.94464,973.47232,973.73616,975.86808,977.93404,979.96702,981.98351,982.491755,983.245878,984.622939,985.311469,984.655735,984.327867,982.663934,982.331967,982.165983,981.582992,982.791496,982.395748,980.697874,979.848937,980.424468,982.712234,985.856117,984.928059,980.964029,978.982015,975.991007,974.495504,971.747752,967.873876,964.436938,962.718469,960.859234,959.429617,958.214809,957.107404,957.053702,957.026851,956.513426,957.756713,957.878356,956.439178,953.719589,952.859795,952.929897,953.964949,956.482474,955.741237,955.370619,953.685309,954.342655,954.671327,954.335664,953.667832,952.833916,953.916958,955.458479,956.729239,956.86462,954.43231,949.716155,945.358077,938.679039,936.839519,931.41976,924.20988,919.60494,923.80247,938.401235,960.200617,988.600309,1024.80015,1068.40008,1117.20004,1157.60002,1181.30001,1180.15,1147.575,1091.2875,1031.14375,982.071875,953.535938,940.767969,936.883984,936.441992,938.720996,941.360498,942.680249,943.340125,942.170062,941.085031,941.042516,942.521258,943.760629,944.380314,944.190157,942.595079,941.297539,941.14877,942.574385,942.287192,942.143596,940.571798,939.285899,941.14295,941.071475,942.035737,941.517869,940.758934,941.379467,942.689734,944.844867,945.422433,944.211217,942.105608,943.552804,945.276402,945.138201,944.569101,943.78455,941.892275,941.446138,942.223069,943.111534,943.555767,942.277884,940.138942,940.069471,941.034735,942.017368,942.008684,941.004342,939.502171,939.251085,938.625543,939.812771,940.406386,940.203193,938.101596,938.550798,939.775399,940.8877,939.94385,939.971925,939.985962,939.992981,940.496491,941.248245,941.124123,941.062061,939.531031,938.765515,938.882758,939.941379,938.970689,936.985345,934.992672,934.996336,935.498168,934.249084,934.124542,933.562271,931.281136,930.140568,930.570284,930.285142,930.142571,928.571285,927.285643,927.142821,928.071411,930.035705,930.017853,930.008926,929.004463,929.502232,931.751116,934.375558,935.187779,934.593889,934.796945,934.898472,936.949236,940.474618,943.237309,944.618655,946.809327,949.904664,953.452332,955.726166,957.363083,959.681541,960.840771,962.420385,964.210193,966.605096,967.302548,967.651274,966.825637,967.412819,968.706409,970.853205,971.426602,970.213301,970.106651,971.053325,972.026663,973.513331,973.756666,973.878333,972.439166,971.219583,972.609792,974.304896,975.152448,974.076224,972.538112,970.269056,970.634528,971.817264,971.908632,970.454316,968.727158,968.363579,969.181789,969.590895,968.795447,968.397724,967.698862,967.849431,968.924715,970.962358,970.981179,969.990589,968.995295,968.497647,968.748824,969.874412,969.437206,969.718603,968.859301,966.429651,966.714825,967.357413,967.678706,967.339353,966.169677,967.084838,968.042419,968.02121,968.010605,967.505302,966.752651,964.376326,965.188163,966.594081,967.297041,966.64852,965.82426,966.41213,968.706065,968.353033,968.176516,966.588258,966.794129,966.397065,968.198532,968.599266,969.299633,968.149817,967.074908,967.037454,967.018727,968.009364,968.504682,968.752341,968.37617,968.688085,970.844043,972.422021,972.711011,972.355505,972.177753,972.088876,974.044438,976.022219,977.01111,977.005555,975.502777,976.251389,978.125694,980.562847,982.781424,982.890712,982.445356,983.222678,986.611339,988.305669,990.152835,991.076417,990.538209,991.769104,993.384552,995.192276,994.596138,992.298069,989.649035,990.824517,990.912259,991.956129,992.478065,993.739032,993.369516,995.184758,999.092379,1002.04619,1000.52309,994.761547,988.880774,985.440387,984.220193,983.110097,980.555048,977.777524,974.388762,972.194381,970.597191,969.298595,969.149298,969.074649,968.037324,968.018662,968.009331,968.504666,967.752333,966.376166,965.688083,964.844042,965.922021,966.46101,967.230505,966.615253,964.807626,963.903813,964.451907,965.725953,965.362977,961.681488,958.340744,953.170372,949.585186,945.292593,940.146297,934.073148,933.536574,941.768287,962.884144,990.442072,1023.22104,1064.11052,1112.55526,1161.77763,1199.88881,1215.44441,1197.2222,1144.1111,1071.05555,1008.02778,970.013888,957.006944,956.503472,957.751736,957.875868,956.437934,955.718967,957.359483,958.179742,957.589871,956.294935,954.647468,955.823734,957.911867,957.955933,958.477967,957.238983,956.619492,957.309746,958.154873,958.077436,957.538718,956.269359,955.63468,956.81734,957.90867,957.954335,957.477167,954.738584,955.369292,955.684646,956.842323,957.421161,956.210581,955.60529,955.302645,955.651323,956.325661,958.162831,958.081415,957.040708,957.520354,958.760177,959.880088,960.940044,959.970022,958.485011,957.742506,958.871253,958.935626,958.467813,956.733907,954.366953,954.683477,955.841738,956.920869,956.960435,956.480217,954.740109,955.370054,956.185027,958.092514,958.546257,958.773128,958.386564,958.193282,958.596641,958.798321,958.39916,957.69958,956.84979,956.424895,955.712448,956.356224,956.178112,955.589056,954.794528,952.397264,952.698632,953.349316,954.674658,953.837329,952.418664,952.209332,953.604666,954.302333,955.151167,955.575583,955.287792,956.643896,958.821948,961.410974,964.205487,965.602743,965.801372,968.400686,971.200343,974.100171,975.550086,977.275043,978.137521,978.568761,980.28438,982.64219,983.321095,983.660548,982.830274,983.415137,984.707568,986.853784,987.426892,987.713446,985.856723,985.928362,987.464181,988.73209,988.866045,988.933023,987.466511,986.733256,986.866628,986.933314,986.966657,985.483328,984.241664,983.620832,984.310416,985.155208,985.577604,984.288802,982.644401,981.822201,981.4111,982.20555,982.102775,981.551388,979.275694,979.137847,980.068923,981.534462,981.267231,981.133615,979.566808,979.783404,979.891702,980.445851,980.722925,979.361463,976.680731,975.840366,975.920183,976.460091,976.730046,975.865023,974.432511,973.716256,974.358128,975.679064,976.339532,974.669766,973.334883,973.167441,974.083721,975.04186,975.02093,975.010465,974.505233,975.252616,975.126308,976.063154,975.531577,975.765789,973.882894,972.441447,973.220724,973.610362,975.305181,974.15259,973.576295,973.788148,974.894074,976.447037,979.223518,979.611759,979.80588,981.40294,982.70147,985.850735,987.425367,988.212684,988.106342,989.553171,991.776585,994.388293,996.694146,997.847073,998.423537,998.711768,1000.35588,1000.67794,999.838971,997.919486,994.959743,994.479871,995.739936,996.869968,999.434984,1001.21749,1002.60875,1003.30437,1001.15219,997.576093,992.288047,989.144023,984.572012,982.786006,981.393003,980.696501,980.348251,978.674125,975.337063,975.168531,975.584266,975.792133,975.896066,974.948033,970.974017,971.487008,972.243504,972.621752,971.310876,970.155438,968.577719,968.28886,969.14443,970.572215,971.286107,970.143054,968.571527,967.285763,968.142882,969.071441,968.53572,965.76786,960.38393,953.691965,949.345983,945.172991,936.586496,929.293248,928.146624,936.073312,951.536656,971.768328,990.884164,1007.94208,1028.97104,1060.98552,1104.49276,1150.24638,1190.62319,1217.3116,1222.1558,1196.5779,1141.78895,1074.39447,1013.19724,974.598619,956.799309,955.899655,958.949827,961.474914,961.237457,960.118728,958.559364,958.279682,959.139841,960.069921,961.03496,960.51748,959.75874,958.87937,959.939685,961.469843,960.234921,960.117461,958.05873,956.529365,957.264683,957.632341,958.816171,958.408085,956.704043,956.852021,958.426011,959.213005,960.106503,960.053251,956.026626,955.513313,955.756656,958.378328,959.689164,960.344582,960.672291,961.336146,962.168073,963.584036,964.292018,963.146009,962.073005,962.036502,962.518251,962.259126,961.129563,959.564781,958.282391,958.141195,959.070598,960.035299,960.017649,959.508825,957.754412,956.877206,957.938603,959.469302,959.734651,958.367325,957.683663,957.341831,958.170916,959.085458,960.542729,959.771364,958.385682,959.192841,958.096421,958.54821,958.774105,956.887053,955.443526,955.721763,957.360882,958.680441,958.84022,956.92011,955.460055,955.230028,954.615014,956.307507,957.153753,956.576877,955.788438,957.394219,959.19711,961.598555,962.299277,963.649639,965.324819,966.66241,969.831205,972.915602,974.957801,975.978901,976.48945,976.744725,978.372363,979.686181,981.843091,981.921545,980.460773,979.730386,981.365193,982.682597,983.341298,984.170649,983.085325,982.042662,984.021331,984.510666,984.755333,984.377666,982.688833,983.344417,983.672208,983.836104,984.918052,983.959026,982.479513,981.239757,981.619878,982.809939,981.90497,980.952485,978.476242,976.738121,977.869061,979.43453,979.217265,979.108633,978.554316,978.777158,978.888579,980.44429,980.222145,979.611072,977.805536,977.402768,977.701384,977.350692,978.675346,977.337673,974.668837,972.334418,973.167209,974.583605,974.291802,973.645901,971.322951,969.661475,969.330738,969.665369,971.332684,970.166342,969.583171,969.291586,970.145793,971.072896,972.036448,972.018224,971.509112,972.754556,972.877278,973.438639,972.71932,972.35966,971.17983,970.589915,971.794957,972.897479,974.448739,973.22437,971.612185,971.806092,972.903046,975.451523,976.725762,975.862881,974.93144,976.46572,979.73286,982.86643,984.433215,985.716608,986.358304,987.679152,989.839576,991.419788,992.209894,992.104947,993.052473,995.026237,997.513118,999.256559,1000.62828,998.81414,996.90707,994.953535,993.976767,993.988384,993.994192,994.497096,993.748548,994.874274,997.437137,1001.71857,1005.35928,1005.17964,1001.58982,997.794911,993.397455,991.698728,990.349364,987.674682,984.337341,980.66867,978.834335,976.917168,974.458584,970.729292,967.864646,966.932323,967.466161,967.733081,968.86654,967.43327,967.216635,965.108318,965.054159,966.027079,965.51354,965.25677,964.128385,963.564192,963.782096,964.891048,965.945524,964.972762,963.986381,962.493191,960.746595,958.873298,952.936649,947.968324,942.984162,938.992081,932.996041,924.99802,919.49901,918.749505,925.374753,940.187376,961.093688,987.546844,1019.77342,1058.38671,1103.19336,1146.59668,1179.79834,1190.39917,1172.69958,1124.84979,1059.4249,1002.21245,967.606224,953.803112,952.401556,954.700778,953.850389,952.925195,953.462597,954.731299,955.365649,954.182825,952.591412,952.295706,953.647853,953.323927,954.161963,953.580982,953.290491,952.645245,952.822623,953.911311,953.955656,953.977828,951.988914,952.494457,954.247228,955.623614,955.311807,953.155904,951.577952,949.788976,950.394488,950.697244,951.348622,952.174311,951.087155,952.543578,953.271789,954.635894,955.317947,955.658974,955.329487,953.664743,954.332372,954.666186,954.833093,954.916546,952.958273,952.479137,951.239568,951.619784,952.309892,951.154946,949.077473,948.538737,949.269368,950.134684,949.567342,949.283671,948.141836,947.070918,947.535459,948.767729,950.383865,951.191932,950.595966,950.297983,951.148992,952.574496,952.287248,950.643624,949.321812,949.160906,947.580453,947.290226,947.145113,946.072557,943.536278,943.268139,943.63407,944.817035,945.908517,945.954259,944.477129,944.738565,946.369282,947.684641,949.842321,951.92116,952.96058,953.98029,955.490145,957.745073,959.872536,960.436268,960.718134,960.859067,962.429534,964.214767,965.107383,964.553692,964.776846,966.388423,967.694211,969.847106,971.423553,971.211776,970.605888,969.802944,971.401472,973.200736,974.100368,974.050184,972.525092,972.762546,974.881273,975.440637,976.220318,973.610159,971.80508,970.40254,971.70127,973.350635,973.175317,971.587659,969.793829,968.896915,968.948457,968.974229,968.987114,966.493557,965.746779,966.373389,968.686695,969.843347,970.921674,969.460837,967.230418,965.615209,965.807605,966.903802,966.951901,965.475951,963.737975,961.368988,961.684494,962.842247,962.921123,962.460562,960.730281,960.36514,961.18257,961.591285,962.295643,961.147821,960.073911,959.536955,961.268478,961.634239,961.817119,961.40856,960.20428,960.10214,960.05107,960.025535,961.012767,962.006384,961.503192,960.751596,960.375798,961.187899,961.593949,960.296975,958.648487,958.824244,958.912122,960.956061,961.47803,960.739015,958.869508,959.434754,960.217377,962.608688,963.304344,962.652172,961.326086,959.663043,960.831522,962.915761,964.95788,965.97894,964.98947,965.494735,967.247368,969.123684,970.561842,972.280921,973.64046,974.32023,975.160115,977.580058,979.790029,979.895014,979.447507,979.723754,981.861877,983.430938,984.215469,982.607735,979.803867,978.401934,980.200967,982.600483,983.300242,982.650121,983.32506,986.16253,988.581265,987.790633,983.895316,978.947658,972.473829,967.736915,963.868457,961.434229,959.717114,957.858557,954.429279,954.214639,956.10732,958.05366,958.02683,957.513415,955.256707,953.628354,953.314177,954.657088,955.828544,954.914272,953.457136,953.228568,953.114284,953.557142,954.278571,955.139286,953.569643,952.784821,952.392411,953.696205,953.848103,953.924051,950.962026,947.981013,942.990506,939.495253,936.247627,932.123813,925.061907,916.530953,911.265477,915.632738,929.316369,949.158185,973.079092,1007.53955,1051.26977,1099.13489,1141.56744,1170.28372,1172.64186,1141.32093,1086.16047,1028.08023,980.540116,950.270058,936.135029,934.067515,936.533757,939.766879,940.383439,940.69172,939.84586,939.42293,939.211465,940.105732,940.552866,938.776433,937.388217,938.194108,940.597054,942.298527,943.649264,943.324632,941.162316,940.581158,940.790579,941.395289,940.697645,938.848822,937.924411,937.462206,938.731103,939.865551,940.432776,940.216388,939.108194,937.554097,938.777048,939.388524,939.194262,938.097131,937.048566,936.024283,936.512141,937.756071,938.378035,937.689018,936.344509,936.172254,936.586127,938.793064,940.396532,939.698266,938.849133,938.924566,940.462283,941.731142,942.865571,941.932785,939.466393,938.733196,938.366598,938.683299,939.34165,938.670825,936.835412,936.417706,938.208853,938.104427,938.052213,938.026107,937.513053,936.256527,937.128263,938.064132,939.032066,937.516033,936.258016,935.129008,934.564504,934.282252,933.141126,931.570563,929.285282,928.642641,927.82132,929.91066,929.95533,929.477665,928.738833,928.869416,929.934708,931.467354,932.733677,933.866839,934.433419,936.21671,939.108355,942.054177,945.027089,946.513544,948.756772,950.878386,954.439193,957.219597,959.609798,961.304899,960.65245,960.826225,962.913112,964.956556,965.978278,965.489139,965.24457,966.622285,967.811142,969.405571,970.202786,970.601393,969.800696,969.900348,970.450174,972.225087,972.112544,972.056272,969.028136,968.514068,968.757034,970.378517,971.189258,970.094629,968.547315,967.773657,967.386829,968.693414,968.346707,967.673354,967.336677,968.168338,969.584169,970.792085,970.896042,970.448021,968.724011,968.362005,968.681003,968.340501,968.170251,967.085125,966.542563,965.771281,965.885641,966.94282,966.97141,965.985705,964.992853,963.996426,964.498213,964.749107,964.374553,964.687277,963.843638,963.421819,963.71091,964.855455,966.927727,967.463864,966.731932,966.365966,967.182983,967.591491,969.295746,969.647873,968.323936,967.161968,969.080984,969.040492,968.020246,966.510123,965.755062,964.877531,965.438765,965.219383,966.109691,965.054846,964.027423,963.513711,963.756856,964.378428,965.689214,966.344607,966.172303,964.586152,966.793076,968.396538,970.198269,971.099134,971.049567,971.524784,973.262392,975.631196,977.315598,978.157799,978.578899,978.78945,979.894725,982.447362,984.223681,985.111841,985.55592,985.27796,987.13898,988.56949,989.784745,988.892373,986.946186,987.973093,988.986547,990.493273,991.246637,991.123318,992.561659,994.28083,994.640415,991.820207,986.410104,981.705052,978.352526,975.176263,973.088131,972.044066,970.022033,966.011016,964.005508,962.002754,962.501377,963.250689,963.125344,962.062672,960.531336,960.265668,961.632834,960.816417,961.908209,961.454104,960.727052,959.363526,960.181763,961.090882,962.045441,960.52272,959.26136,959.13068,959.06534,959.53267,958.766335,956.883168,953.441584,951.220792,946.110396,941.555198,937.277599,931.638799,922.8194,916.9097,917.45485,927.727425,945.363712,970.181856,996.090928,1032.04546,1076.02273,1123.01137,1164.50568,1191.75284,1195.87642,1171.93821,1120.96911,1059.48455,1002.24228,964.121138,946.060569,942.030285,945.015142,947.007571,947.503786,948.251893,946.625946,946.812973,947.906487,948.453243,947.726622,946.863311,944.931655,944.965828,945.482914,947.241457,947.620728,945.810364,945.405182,944.202591,945.101296,947.050648,948.025324,947.512662,947.256331,946.128165,947.064083,948.032041,948.016021,948.50801,947.254005,946.127003,947.563501,947.281751,946.640875,946.320438,946.160219,946.080109,947.040055,949.520027,949.260014,949.130007,947.565003,946.782502,947.391251,948.195625,948.597813,948.298906,947.649453,945.824727,945.412363,947.206182,948.103091,946.551545,945.275773,945.137886,946.068943,946.534472,946.767236,946.883618,944.941809,944.470904,945.235452,946.617726,947.308863,947.654432,946.827216,947.413608,948.206804,949.603402,951.301701,950.65085,948.325425,947.662713,947.831356,948.415678,948.207839,946.10392,944.05196,943.52598,945.26299,946.631495,946.315747,945.157874,943.078937,942.039468,942.019734,943.509867,942.754934,943.377467,942.188733,942.594367,943.797183,944.898592,945.949296,947.474648,947.237324,948.118662,949.559331,951.779665,953.889833,954.944916,954.972458,955.986229,959.993115,963.496557,965.248279,965.624139,967.31207,968.156035,970.078017,971.539009,972.769504,973.384752,973.692376,973.846188,974.423094,975.211547,976.605774,976.302887,974.651443,974.825722,974.912861,974.95643,975.478215,975.239108,974.619554,973.809777,973.904888,974.952444,974.976222,974.488111,972.744056,971.872028,972.436014,973.218007,972.109003,971.054502,970.027251,969.513625,970.756813,971.878406,971.439203,971.719602,970.359801,970.1799,971.08995,972.544975,972.772488,972.386244,969.693122,968.846561,968.42328,969.71164,967.85582,967.92791,965.963955,965.481978,967.240989,966.620494,966.810247,966.405124,964.702562,963.351281,963.67564,963.83782,963.91891,963.459455,960.229728,960.114864,961.557432,962.278716,964.139358,964.069679,963.034839,963.01742,962.50871,963.754355,963.877177,962.438589,961.719294,961.359647,962.179824,962.089912,962.044956,961.522478,959.761239,960.880619,961.94031,963.970155,963.985077,963.992539,964.996269,967.998135,970.499067,972.249534,972.624767,973.812383,973.406192,975.203096,976.101548,978.050774,979.025387,979.012693,979.006347,980.003173,981.501587,984.750793,985.375397,984.687698,984.343849,984.671925,984.835962,985.417981,984.208991,983.104495,982.552248,983.276124,984.638062,985.819031,988.409515,991.204758,991.102379,989.551189,987.275595,983.137797,980.568899,978.284449,973.142225,969.571112,967.285556,966.642778,965.321389,962.660695,959.830347,959.915174,959.957587,960.478793,960.739397,959.869698,957.934849,957.467425,957.233712,958.616856,958.808428,957.404214,955.202107,955.101054,956.050527,958.525263,958.262632,957.631316,955.315658,955.157829,957.078914,959.039457,959.519729,958.259864,955.629932,952.314966,948.657483,941.828742,936.414371,930.207185,922.103593,915.551796,915.775898,924.887949,943.943975,966.971987,995.985994,1032.993,1079.4965,1125.74825,1166.37412,1193.68706,1202.84353,1186.42177,1142.71088,1081.85544,1020.92772,974.96386,950.98193,942.490965,943.245483,947.122741,949.561371,948.280685,947.640343,946.820171,947.910086,948.955043,947.977521,947.488761,945.24438,944.12219,945.061095,944.530548,945.265274,944.632637,944.316318,943.158159,943.57908,944.28954,944.14477,942.572385,942.286192,943.143096,943.571548,944.285774,945.142887,945.571444,945.285722,945.142861,946.07143,946.535715,946.767858,945.383929,943.191964,942.595982,943.297991,944.148996,945.074498,945.537249,942.768624,942.884312,942.442156,943.721078,943.360539,943.18027,942.090135,941.545067,941.272534,942.136267,943.568133,941.784067,940.892033,941.446017,941.723008,942.861504,943.430752,943.715376,943.857688,944.428844,945.714422,947.357211,947.178606,944.589303,943.294651,943.647326,944.823663,944.411831,944.705916,943.352958,941.676479,939.838239,941.41912,942.70956,942.85478,940.92739,939.963695,940.481847,941.240924,942.620462,942.310231,942.155115,940.077558,939.038779,940.019389,942.009695,942.504847,942.752424,941.376212,942.188106,943.094053
