190.60000000000002,275.97,356.8715,347.95792500000005,344.45852875,345.1791773125,345.71811469687503,345.1551353995313,344.5563374951797,343.7144263552645,343.98646180747784,344.1149555918629,344.394929130033,343.5745057639052,343.4015282553031,342.95119829903956,342.98236367228293,343.1033219014339,343.19571572131423,343.88504811886264,343.94596180799124,344.1084495036573,343.79727943441765,344.70471355309627,345.27490035062436,346.201019304814,346.22620401722816,346.6786388338979,347.3547578574437,348.59833016543297,349.60234559885623,350.28996621178555,350.7053844094679,350.65023246893736,351.03221915607975,352.11587741874916,353.3425951712586,353.82707637049964,353.9415164229122,353.61157036032944,353.72234566083796,354.3333041989416,354.897217507011,354.8384739147024,354.9132154289144,354.61241553281917,354.8237184519134,355.4281933007634,355.9874044123662,355.52922011434356,355.22416877366453,354.46233055559964,354.71567503353685,355.7410997205432,356.377161262296,356.3940869508581,355.76143758934234,355.39222377298995,354.8423169318834,355.28827296475635,355.39347050516807,355.8659128265038,355.3370308334164,354.53985281700403,354.20615581747904,354.46269956827587,354.7665572307123,354.5385371600506,353.93474528046187,353.37633587797444,352.9344459420782,352.98446090899745,353.6040546574462,353.3705742216779,352.95126855604383,352.6839078611139,352.41824117914217,353.0448925479872,353.6268433136435,353.8664132069184,353.92533717397197,353.4104124809555,353.23321251725366,353.0678187500896,353.4849484366329,353.0723616406639,352.3721344961351,351.42777519316,351.4100045155352,351.8581110145652,352.236594223495,352.395264738097,351.7684070519204,351.2918164104991,350.9469888268791,351.08805973813116,351.7982475717495,351.955684634506,351.51230338968725,351.12660059879033,350.6680548005761,350.8102672300316,350.8260838984696,351.118182443575,351.0027866828978,350.99395154367636,351.3001630886713,351.48529426838263,352.0607271321473,352.4226989299735,352.27582869689394,352.76507361865663,353.04795488422246,354.4093485748561,355.32713482704605,355.91317582990496,355.8379844671524,355.9124419851471,355.71247867738504,356.9187539668734,357.56843836778705,358.775640383267,359.28279606244735,359.1970781777143,359.6760062879919,360.5563457767147,361.38838239676465,361.0027635913261,360.2804427005955,359.135839685404,358.7291858807001,359.7067487216948,360.87820326988026,361.47075240042125,361.3825522164849,361.7573347691547,362.74300565071803,363.7749829790064,362.6741005685138,360.477545822624,358.0424176804431,356.3740018248467,354.7791790247356,354.7423409575209,353.4239240008872,352.59168675207957,351.5992194623517,350.89045468927844,351.07551629241857,351.1017014509152,351.4911391128333,351.3703579718126,351.15692514576773,350.17363584412107,350.1334719505056,350.3846446102687,350.5740941719613,350.65206306088857,350.3386921383575,349.2504622400378,349.5205422810803,349.8614497739441,350.63090039724875,350.6753824914404,350.03468585556556,349.4644965826497,349.72504087808926,349.94052312696306,350.0167217997474,349.90213775366453,348.8040570223294,347.76469026120026,345.2715626358235,343.2481873551488,340.8740125004514,338.39389000722,336.2366048746165,336.3684752559082,341.7697459934738,352.6930889375309,365.4768582534498,380.991502640451,399.67658195530504,420.36659577021214,438.09784111372414,448.3767781558032,446.0762690365237,428.8773476403837,399.35231916615464,368.38851665967303,346.9129582087086,339.33492625658096,341.38760577673554,345.26387339833417,346.76742604124655,345.898435028021,345.46670694653665,345.6317429012721,346.24507750760955,346.50615897955595,346.16243817564174,345.36657014224016,345.5235495841059,345.15549401368276,345.26604782011066,345.07892290831035,344.2827514635789,343.9319162814055,343.58926661275075,344.6239408552922,345.08933962659785,345.5143359759055,345.2698162198748,344.960792390211,344.9884695694957,345.40253690201473,345.88044967642446,345.93585067107813,345.7091849826249,344.91774821731485,344.56865334000304,344.92567992213407,345.6252833368931,345.8724518370487,345.92511324130294,345.4101217460825,345.03323825063075,345.17783200016436,344.8894464874603,345.0966360756188,344.4006958718461,344.4251334026267,344.4587085362764,344.45580790305485,345.4542741780335,345.20449589594557,345.167061496301,344.5814221303877,344.81257581866555,345.73030010254735,345.87285620393936,345.6198421846757,345.6253650805693,345.0377396367378,345.36684476413467,345.2797707799564,346.26766922279546,346.02262799986244,346.6854851388672,345.6645943430636,345.68249602590345,345.7326454815516,346.0292429246273,346.0119055796911,345.69794257478407,344.9145075922762,344.769377491647,344.81580574580386,345.62074083812746,345.3781726708034,345.35005432455347,344.2635886502321,344.3193178512607,344.5708546749254,345.15549137369067,345.0136826975692,344.491541296437,344.1247388002997,343.96918599516323,344.5953037602269,345.27177551223053,345.5066460363771,345.56107892256966,345.24661375205267,345.5596153662689,345.65968854408396,346.23903480448246,346.20506383257174,346.2777950681473,345.9758570549641,346.0873173938444,346.4968412775596,347.9707920664298,348.87661833280055,349.45762948003846,349.88328760935815,350.83295414553027,351.7641879122556,352.67014289711074,352.7782834595317,353.22757868216786,353.299706892915,354.27363572124585,354.82133286929195,355.8452515704731,355.96667077801175,355.90940388257576,355.9061962669706,355.9092199925227,356.6092291870254,356.67407754102265,356.8358346635976,356.52450438976905,356.0319830473317,355.972175628145,356.09979206622614,356.2964016152814,356.58019031592465,356.4561704034397,356.2481819640318,356.2647823816264,356.07435178271714,356.48304329178285,355.972130246275,355.07724132309716,354.64753142153137,355.21376136276865,355.70693536078505,356.2539651638223,356.1019549737697,355.8822039931204,355.3007920516555,355.4408501977613,356.0629178875292,356.3248115957355,355.68061352583686,355.59972874392145,354.8359828865121,354.77821441847834,354.7192901347505,354.82512477233854,354.32277925464564,354.24260479865086,353.2717307973352,353.6242832202007,353.9551992991232,354.22102587403384,353.69118874134216,352.7043892692312,351.78022109947136,351.57576948156486,352.1322004709482,352.11460150237434,352.3876599013339,352.27488692981467,351.56687265844255,351.80791202058714,351.53126076604855,352.5330413606683,352.59678489366416,352.44350868728344,351.74798532095264,352.19042529958824,352.80307946897295,353.350324761572,353.09232978847274,352.2778672724977,352.03149014695146,351.4845321290275,352.42419888620105,352.7045634492386,353.143561883228,352.7075937333767,352.3074422191698,352.8492482023727,353.1421654789229,353.7004293159352,353.5578702602571,352.9370850211904,352.37525223592763,352.6343831371441,354.04951823134644,355.0658049315755,355.8442338418539,355.55449806132856,355.63006340484094,356.1407719266915,357.5114582334234,358.4173884919943,359.10355766372913,359.62395269221383,359.86362448220285,360.82562114127916,361.36553771882586,362.7904420569947,363.092201011209,363.6058678465898,362.56509655711005,361.591451779815,361.09217258315374,361.16581878185156,361.5871004317497,361.36235403931994,361.05252727644654,360.77925593421173,361.10841083946707,362.90561666131606,363.9992986249609,364.15475423568614,361.8922973569677,360.2976474203673,358.69050276113325,358.350592490925,357.5479452373971,356.5050731135839,354.897349082451,354.3298788901983,353.83863860136756,353.89157412542176,353.0134893636606,352.65474682554594,352.3165881905397,351.95143324919576,352.1865989280132,352.59309839113956,352.76101513404234,352.2322943237409,351.25033452711085,350.72586855745743,350.7011898457715,351.2286470798385,351.1035081537195,350.48339223832204,349.82065498039793,350.08479763906405,350.10472736902693,351.0905237495955,351.3402374440689,351.67846194031677,350.8490650307807,350.2736236514452,348.64386556588875,346.6541255391333,344.1351004447489,341.16053870080594,337.83521804272226,336.05021216282364,338.6057284897227,345.36720296737263,354.2013534271452,362.5215721802741,370.56385371962904,381.34572870500483,395.5045208787683,413.15748752081134,429.46689958002105,442.06878064495845,449.32321598875103,449.33040016831455,438.16731919214675,415.125114031977,386.03537833879386,360.2419753814615,345.1861323139873,341.9285946152276,345.1442636535393,349.14635708656164,350.18546896299495,349.23340869752224,348.12905611697414,347.8318767592752,347.90195335618756,348.21330849422685,347.6942369074793,347.30462272991474,346.7500570181303,346.9972660125978,347.31263384846363,347.98450500694696,347.8351430572295,347.4090175967912,346.437791967299,346.20765952179545,346.6677274255453,348.05623065263296,348.3638020960911,348.37899836256383,348.0628599770673,348.17790708301845,348.2879616469957,348.57670656349933,348.45676658947525,347.8483263423513,346.68474535340874,346.273346415212,346.65209541156895,347.45372790866094,347.4947088339885,346.4525781628675,345.8026356501572,345.78723930934876,346.6205062520247,346.8796127219313,346.8249940513022,346.6147696613384,345.928011814368,345.2728609262147,345.8399563629709,345.54435913554073,345.73078422507444,345.83624283196923,346.02164864714786,346.20710542604417,346.7885622963404,347.2502166138808,347.19806105448896,346.87758611658154,346.1962176414464,346.1463098120986,346.48287362732276,346.76854082802896,346.7374292772324,346.024701494737,345.86189346140156,345.9056702521931,346.1116218143203,346.39913539667435,346.2744621394503,345.4663201231938,345.2129608868678,344.56603594949695,344.7110501581818,345.03614569461604,345.11264020736013,344.99256070490117,344.3947399543869,344.53063496703567,344.3537312539289,344.4557816889518,344.7595243528559,344.9392346979096,344.9150620474617,345.20728516273147,345.09388263949035,344.7849416098889,344.7060587875311,344.225449980129,344.353424561617,345.27105627291274,346.2187759582735,347.02550838844064,347.2377857826643,347.28683529144473,347.4737689462946,348.1619697881131,349.7182130632796,350.7059908574304,351.0787898039645,351.41076096693024,351.4755224614553,352.2556858285807,353.1134395854982,353.4315437292961,353.5727508342603,353.4497852718222,352.64887319469585,352.8950670766741,353.4228029864315,354.78410649684474,355.38965452583625,355.691311948866,355.0459516762649,354.5631368187435,354.21954557524964,354.56086588030036,354.76097942722254,354.5339077346239,353.9352556419077,353.9765418311734,354.60441012634595,355.67095240212404,355.9862318735765,355.31714078621496,354.4348313670104,353.9124013923388,353.78263836203257,353.6152480122815,353.73010568128433,352.73273231532175,351.9768581001697,352.1645204792255,352.39293107103026,353.97212742248723,353.88174707532414,353.30730627510945,352.6405473324784,352.50260731962055,352.64284226739505,352.94272752064927,352.8207215105978,352.61182754843765,352.22837254704825,351.8579899952257,351.8956818728863,351.9123164065944,351.409600086026,350.333904175369,349.51282478693025,349.50766355188506,350.24897558305923,350.5121680432528,350.8619428186844,351.03129445690314,350.00533813622064,349.54816837034383,349.0223246746718,349.07147534774924,349.695309998879,349.76166073266864,349.7271514634227,349.72555939019543,350.1273644573191,350.4073538076243,350.57326408675283,349.7509691052811,348.78378834039825,348.573262127716,349.3321474765943,349.7047295197845,349.9481561501811,349.6173557165017,349.32172440666585,349.55304599384164,350.05626147997464,350.61953462630913,350.66621019468585,350.03571275895024,349.86490385231815,349.50496916943666,349.3315063489123,350.1581762240826,350.1255158713503,350.1858153952284,349.48443343667105,349.61648755840497,350.2449539502462,351.30692792456745,351.82240590625935,352.2435333084587,352.69670303926415,353.15298818261385,354.60751543890615,355.411974818924,356.39902548710853,356.0094499846984,355.8795762264097,356.2055486894446,356.89574375420733,358.3449353778175,358.73796604339884,358.6458549289392,357.93080895138314,357.9711668059839,357.80490121213165,358.3111965990943,357.59419510943866,357.0047304145734,356.2700537237994,357.2362607930813,357.72468427415595,358.4519527466382,358.0911681489603,357.9728439552201,358.396799394791,359.28151783249945,360.21608413863544,360.02511990144325,358.4879397979961,356.77434701502807,354.8368856593488,353.71943836628117,352.37218379871854,351.6954188917501,351.2966198654766,350.2503980621387,349.4226491036193,348.8163476417122,348.8880501627334,349.0147801097777,348.90485848637445,348.20401807019243,347.4445561721717,347.2175712878818,347.1668936269973,347.8807767542561,348.14761648093736,348.59858033824037,348.06269015904115,347.86693647513596,347.6035186682912,348.2264772428287,348.30850020444404,348.2732511276364,347.670912433396,347.6027918219484,347.93631478723285,348.62304466954095,348.97203202716133,348.7202461651649,347.9153860903837,346.86821838722256,345.1608197761197,343.59854809183287,341.1620316066024,339.1619710150783,336.28379986891593,333.7277114558003,332.9994244337642,335.9636432055218,343.55184661803577,353.3242255088221,365.4561963936572,380.4609789048761,398.30414123507336,416.8617439930026,432.24170573859624,440.34482751342006,437.47067333739915,421.409224957459,395.6560050852571,368.8467384978642,348.77486282084396,338.81891993406464,336.3203108622546,338.1430384601841,341.1768325338781,342.93400645029686,343.0944580507912,343.3985767749456,342.5753482587132,343.1013037483171,343.01616739964857,343.29412644260174,343.08448530788746,342.18106941247555,341.7367222639819,341.80411041617714,342.0229583659921,343.0086465608916,343.14841975365584,343.19214668427264,343.3829716781036,343.0712440818812,343.47728921200076,343.27257333530594,343.56250687263463,342.758245989603,342.08396235688815,342.15788958267547,342.68790740302177,342.9577101507151,343.0177191223132,342.5012285363486,341.92405261706693,341.7787359423292,342.1148605720301,342.20532017428206,342.2839909626844,341.57553444315175,340.7070237297082,340.985872091357,340.71535520894673,341.51493863498484,341.5884853078034,341.4448288028606,340.8483342944668,341.08534184513366,341.60331619302,342.66556709809237,342.68655583544444,342.3323938533232,341.74905251556163,341.69592768155576,342.1277509901441,342.40881606641506,342.173171647172,341.7709006143206,341.1027963869254,341.05631514993775,340.99204442315687,341.6975820213453,341.56551867777495,341.6368449650441,340.83988181785907,341.1761636608549,341.59919772606435,342.261231930654,342.3069785171641,342.0715894776091,340.88107160026135,340.3523669461065,340.9383280726816,341.4354652490606,341.6813103339129,340.94416122085136,340.5687264222618,340.1243556178444,340.6653458979947,340.46051492420804,339.94370695888995,339.07978890584513,338.4488252067633,338.42356929436966,339.25638027494335,339.11600252153437,338.98138086017616,338.39513083091447,337.8311744154455,337.588684737682,337.8290070423436,338.8291154109987,338.9670938773329,339.31018953558345,339.3861358293542,340.7651837317531,342.3924340219446,344.14211911231513,344.673272343287,345.65923042721994,345.8833748614747,347.0228697355653,348.354687770148,349.93112212471436,350.6857095052569,351.16915841850147,350.8072566038121,351.30117924888435,351.5945782073652,352.7552121271876,353.38251048327237,353.59311386947707,353.5512187823626,353.642783367408,353.94029989251146,354.72084583700405,355.0669427135242,355.5106105724736,354.9711223357001,355.17591335459133,355.6926482154854,356.15657192149615,355.60753899315097,355.01179445426766,354.5690333276291,354.52095861090515,355.1455004030733,355.4166770493011,355.2718911273813,354.46557159116594,354.01312686407266,353.5760650772381,354.12054040293447,354.3151697259914,354.37821449355374,353.66533078902273,353.4978227358712,353.54184232375536,353.9480167470187,354.12550704646134,354.196323810326,353.7839084571607,353.4009883866257,352.9407551578107,352.98291282277825,353.4038166009706,353.0806635288126,353.1757759935109,352.1871780238838,352.7318522991303,353.15404848384935,353.90570496085104,353.547012327765,352.9273641355693,352.47628117683337,352.52981773437983,351.84969505443934,351.78102436055906,351.51846402925014,351.2350255805095,350.862325519512,350.59513244499897,351.1271271017745,352.0138870226614,352.1429492937782,351.792158184178,350.80324462610224,350.97022985948604,351.2113262757206,351.99092219323967,352.03988757655196,351.6984595115104,351.2130826455969,351.1544228921447,351.58162472311295,351.86319761923716,351.82775888288256,352.115452174894,352.00283944711117,352.4940854188998,352.7751537566995,353.03653804122007,352.9094154101041,353.00270232743384,352.60439411312313,352.3196451779722,352.25379803544524,352.67132783932914,353.3537437062613,352.89874642272054,352.4873754935509,353.2306939041864,354.11409653011316,355.032760478285,355.64265714958015,355.46622911860675,355.0445556865907,355.6744607597401,356.5640491776835,357.68807450312886,358.48739381595936,358.39122658404557,358.35606897999975,358.7626352217978,360.0440647899102,360.95966499941466,361.8498135105338,361.8595260745026,361.7145330207482,361.7212970452374,361.7282084967007,361.6275247229031,361.3322133390198,360.75201309690385,360.09578867820386,360.35760991124465,361.2773300705276,361.91825300091136,361.2402208464281,360.1420763076331,359.830885142297,360.6013519275035,362.37838814650996,364.2510129962993,364.3685299428596,362.7690228530421,359.643122360205,357.87939273933773,356.6238742450229,356.474836650782,355.5450644552098,353.99900494470046,352.1227965300045,351.5939099262647,351.6141646771865,351.93959626982746,352.2223119526493,352.09190458887616,351.2842891729237,351.43119031191003,351.56422602575833,351.75022918311663,351.5342772395563,351.33577467886636,350.4564974040789,349.9103863958528,349.6816558100034,349.9203978897072,350.3198973150145,350.28798523976394,350.0696058722611,349.48212044439873,350.022413684167,350.6247732935717,350.5676406511131,350.0403793027658,348.56959900230606,347.56950108474643,345.7930449956474,344.1318726959804,342.8037541154186,340.2532186594301,337.6471513612576,336.70498149896565,339.1823933569889,346.8056312572023,357.1005987692904,368.4046884986754,381.72473563660174,398.9935287932361,418.0640867785081,436.54711922141274,449.6694397000039,456.18917205392916,453.4070694123034,439.1201879266884,414.27363713305044,385.73030874701305,360.6998027059969,345.27849442734953,339.6010851433326,340.8560210214659,343.9771446917601,346.95834171433876,348.05322567969506,347.44942163029833,346.5248676345003,346.7012855367601,346.938692341437,347.5180011060902,347.5771653276237,347.04524167831437,346.56887964970315,346.21929393359915,345.9605913208349,346.6910057372783,346.56742014709437,346.1370787057814,345.26477505735625,345.62990731184317,346.25526588154,346.60574134033084,346.25694963890646,345.75686545103815,345.2993092455028,345.54719126517296,345.2576749744663,345.45975668801805,345.9641284168758,345.52880574475535,345.22535329191845,344.7622920481664,344.9006177329958,345.6168545109419,345.9741263878031,346.22045095506274,345.9902711328567,345.68946389560404,345.916013248577,346.21972614279093,346.4932130304316,346.7643530413389,346.2371216964115,346.4499262631125,346.36564760202384,346.9592213067432,347.13375655456167,346.89535110693475,345.8985446169252,345.560305213807,345.52705750846343,346.3456318638865,346.10636553138255,345.87740013023654,345.3008117169191,345.3410894076422,345.56790494377196,346.15455028242934,345.41387723869,344.9215786239441,343.98322720686826,344.35475970845937,344.6831006542336,345.4481069818654,345.2934396181951,344.86292266999703,344.69218188559046,345.2222447722206,345.80427866710943,346.9486738280336,346.76235237524287,346.61444868983625,345.831159946746,345.3777195681709,345.73955602425417,346.34413622037874,346.19581538776833,345.87300241959264,344.49655910963196,344.98152192353876,345.02609594834144,345.499619106406,345.47371424726265,344.8513333323165,344.5837476210211,344.32824595233313,344.7544003213323,344.9458676863168,345.3149865996175,344.9869572857033,345.084902805734,345.39640699542815,345.8759345099419,346.7363829247315,347.2693841282664,347.5997116473501,347.8565452112192,348.72718715707157,349.77081338158547,350.9750999730672,352.26270433226745,353.03810978473325,353.63495929415,353.96634654605583,354.91993470798974,355.5556859372977,356.1762189677356,355.91340475474834,355.59551881387586,355.7245538215688,356.03399636822775,355.9120724905102,356.4026965570631,356.0842615476214,355.7756520947658,356.2070043178807,356.20086717936766,356.8796064251376,356.5459763197747,356.52872086275437,355.94626514087355,355.77625069981866,356.2138742079654,357.10049375461085,357.2342816018712,356.8832612321759,356.4941228582976,356.13113079547634,356.4687373173113,356.5700065943607,356.9480628044164,356.22409653006116,355.74139203327616,355.3017255718332,355.2478441197445,355.47252151542114,356.1639817182417,355.5181748383169,354.9158921721721,353.6782966494756,354.4702905589176,354.9925706395804,355.2268569400751,354.88902862101725,353.9942057219454,354.6558382828519,354.2674977997601,355.2538331958694,355.5239334502185,354.96111166769566,354.77574774410425,354.61315702941005,354.83055476132427,354.9278144104633,354.91208154141066,354.3080052024064,353.6389956628092,353.20264995673926,353.45791771902265,353.86697161621197,353.5337555332383,352.9299636425276,352.0768140412117,352.149661115813,352.5886762421488,352.96308313210193,352.52241203128756,352.02572524183057,351.0725931363441,350.94508408109124,351.39911613912824,351.78278998898907,352.2409046935942,351.89881526587084,351.59301400202685,351.72540853660513,352.03407887306844,352.71202562951635,352.9626947748708,353.1162639797807,352.6960520622675,352.3093841978976,352.4497281869918,352.36204438075555,353.2594113716126,353.51892721238164,353.6610830708004,354.1409994858409,355.10989587216795,356.13745523209957,357.03763244478665,357.14124561615574,356.99105609695295,357.1933849143446,357.6907779494352,357.85579185681104,358.1226715096877,358.501076831675,358.7688125829319,359.73650552926966,360.47473409439,361.78943801881707,362.0867913943397,362.70618852934217,361.96035100381596,362.1666730233421,361.7936487986421,362.3019839089008,361.7952183646229,361.69513988632383,361.4254820874527,362.04396890131125,361.9265274505618,362.80147518240636,363.7635998683516,364.27174624746215,363.29823269420933,361.02150105291645,359.18401331264374,357.68972428172196,357.05631312028174,355.9626981298998,355.14904943749093,353.8444126216305,353.15032689704395,352.9502630240663,352.7949705039445,352.6127383235995,352.42961455862286,352.14788235588884,352.67112515427436,352.85904962449183,352.9234912610617,352.2108729557223,351.4432817891608,351.41729226275584,351.4569712974042,351.856286821992,351.5343370940302,351.6304688041989,350.54175970508857,350.5913885745356,350.7433425860188,350.93326344197226,350.6161696986005,349.92252834297136,349.5730650979214,349.82522032795544,349.03008572870624,347.75723469716695,345.2606339787064,343.3491065662064,341.9695129727544,341.134069023052,339.4448209002097,336.6710555038369,333.9942061797977,333.2667369158183,334.53695284521916,340.1098155119481,348.1676615821416,358.48612614529554,370.4673106136281,385.15232816205383,403.21901806121593,422.58143268883657,439.1099774624974,449.0154294924333,448.69372965225347,435.7145420427657,410.47958641524906,381.4902935770993,357.2015060003826,344.8654100211259,341.6966541989246,343.97189678899747,346.1165724506039,347.79557653801993,348.40439255056884,348.4900015455706,348.65528029519305,348.24273590796184,346.9550991898423,346.64010824510984,347.1202396282525,347.9119826063319,347.74838888827077,347.5169814252699,347.23673148432295,347.06231435452037,346.9850477080579,347.097631896871,347.1958660197535,346.6853251041688,346.8059404438039,346.9254367226013,347.21343114167973,347.493056606786,347.3646756125767,347.3571133890319,346.8639105499196,347.0889488030524,347.1023570323514,347.69043470822976,347.660360412971,347.53246024393997,347.1403589671545,346.9663590394453,347.29466409967,347.6869488430442,347.75091935286434,348.3281065902046,348.0960487028466,348.17879223534743,348.5862579530903,348.86174749057807,348.9275997278166,348.41053263908026,347.9330933816552,347.28281869896324,347.4392043959691,347.8638988452534,348.2348448379389,347.59506281584044,347.20850461731106,346.85982162834244,347.09658368771727,347.60217973419697,347.46506182890425,347.04663792184493,345.6744150124626,345.66394735328464,345.9330818817127,347.02014853825017,347.45233847900187,346.8763756491374,346.68356429359307,346.6220030028635,347.03472163517716,347.817163768098,347.75740572983625,347.42127152510335,346.64106613725306,346.0968831168822,346.46310253729325,346.6720007172913,346.54324483727083,346.3392377222719,345.9558758720229,346.08524432028526,346.2979439903846,346.48084058446653,346.76106077125746,346.6379049322138,345.8300517148264,345.576602167648,345.7296673058762,346.8346865263238,347.17178230839,347.19967655826434,346.3814270566673,346.2209448192534,346.66988140620396,347.05545868872713,347.1137329952535,346.991540415801,346.69473632944727,347.0156861627376,347.3144788753908,348.5834917480936,349.3051014688258,349.8055703391541,350.044466409601,350.90749816256226,352.3524017713919,353.9370050033023,354.8855296612653,355.0588732667717,355.00277985359816,355.4969173439816,355.77501514012107,356.43640337579484,356.3894290742042,356.65870837750015,356.4475931274148,356.44468492475426,356.7553860973915,357.3399964488927,357.2952308726858,357.6682386339211,356.8518265246696,356.8739967420705,357.01370883666306,357.30561472106336,357.2840338221137,356.9705175728412,356.1872724302523,356.44211049984534,357.0685308534952,357.62446793233306,358.0653500607085,357.7155091003479,357.4109570419472,357.34367669288525,357.16226831325844,357.37470274969286,357.5731514468524,357.5526072901728,356.9437120631488,356.37518403233395,356.4340551952259,356.1595380386221,356.3703203383076,356.2735070811535,355.567808629027,355.007934214491,355.1712128578241,355.59104264638427,355.9618872247896,356.22235350644127,355.4907879634385,355.01434292650606,354.5747434555028,354.9205456808995,355.3252355431799,354.987710938796,354.58435267590124,354.2213968192652,354.35971252524166,354.47094453277464,354.5584671470992,354.5485294160063,354.1446501718448,354.36534102060745,354.1745004403774,354.47300792695074,354.26762458163364,354.26296837457085,353.97347035218974,353.48817806366196,353.02691757920746,353.57424521785657,353.06994186014674,353.26779064609985,352.3831133746877,352.21745479896066,352.5699715913176,353.26062868048615,353.70846998640985,353.25154506665524,352.95199924734675,352.6898227842999,353.1179088984176,353.5096134158641,353.96862388428593,353.12608813499253,352.7452643990361,352.7064323732986,353.1274151613832,353.60830762326594,353.76321386076756,353.43142392579836,353.2402681106717,353.2664153981765,353.1746658245577,353.5779459388633,353.862369411829,353.9279842324654,354.1104823177853,354.09807667248754,354.58957205048637,355.16561756385136,355.91224051928316,356.0461070958433,356.10208261924373,356.3925905142456,357.1752663433256,358.6216071571215,359.51015632497763,359.7934118258951,359.1348215924564,358.7535883290825,359.1055795039231,360.00704160834977,360.9443689443863,361.9524294723632,361.95516007916257,362.40462052242367,362.9820109699207,363.03066842538277,363.0993660302349,362.09349827721917,361.3403567846273,360.8283072469077,361.2915667984232,361.99400629773345,362.4357213451922,361.9785136178537,361.2792882518477,361.637109906515,363.2541800920819,364.6554355000702,365.0045192203924,363.1170022639769,360.29392392578154,358.12945369051204,357.17883111918536,357.23458575951514,356.579329156065,355.109304254221,353.8155683294857,352.7537563708147,352.47153376498505,352.33873549321004,351.9594865370903,351.98508889848506,351.5027712282212,351.2256069936647,351.16358108890574,351.5805405958715,351.8627939157612,351.6278332744184,351.42546864049103,351.24733490425456,351.26635982276275,351.6743152636492,351.4529662456794,351.64363592453356,351.14516989148933,350.86055970919887,350.79971351996556,350.81698633854177,350.91916500707464,349.9131924327192,348.25838212801034,346.8914212719635,345.6425098300013,344.67330344490176,343.9842093362548,343.06712436094216,342.5474333151402,342.0192721161959,339.8716647284332,336.90545315776853,334.1611441056899,334.3466701368271,338.6746092878742,347.3489360287649,358.19882273416806,371.52261206185335,388.5139282601989,407.8981729838974,425.4793949377952,437.43112160391536,439.6544741729145,428.54572021115854,404.18999028079634,375.96321447540225,352.29233976219007,340.78722228812035,339.5460218974845,343.28333779071977,346.3585320155898,346.61790650968453,345.4511780737363,344.99654577082896,345.4776138077717,346.37629202106996,347.00730470855785,347.2308201635186,346.4880937563962,345.7140543040043,345.58989259698,345.83480265495075,345.9287652374035,345.9118216053823,345.8079706578607,345.8140103868379,346.4189009477651,347.0883544332699,347.12463723094834,346.48935041678914,346.01930061761317,345.7745674482799,346.0103065967054,345.7107562977508,345.4139468552772,344.9437648423486,344.78211441511877,344.51370603712667,345.0352089773877,346.02255424927426,346.2471118386669,345.986516695603,345.1883185732865,345.24125823655555,345.6785211595079,347.0540110301969,346.86337339051477,346.70413077896444,345.421624791526,345.59371222147547,345.74923314934995,346.1328527314588,346.40589570595955,345.4730625781291,344.90605208579564,344.78104426680375,345.11564518237,345.40516552754127,345.07395946450447,344.67604375039775,344.0124998392549,344.16557282051735,344.7910963670114,345.6521665406235,346.0778368546183,346.01349983023795,345.4954331657572,345.2245533502003,345.4640006742021,346.0655722987799,346.223521351351,346.0855453174935,345.68454666655776,345.91149540079743,346.0201978966323,346.6034153351285,346.768819338412,346.531388266323,346.1349896197633,346.4666811056957,346.66991646372713,346.5431701215289,346.7393456707372,346.1358742103867,345.65623900594386,345.4103943391835,345.1466683327437,345.1721468664037,344.68405924004264,343.90718969467764,343.27043755326395,342.941118637603,343.48942219045665,343.57847295859705,344.1466052425473,344.0137460899428,343.69198243337553,343.2147135738341,343.5546651996395,344.3615310613264,344.9041901869518,345.13671393758614,345.0979547937731,345.6882665634321,346.5606889321398,348.0875522252214,348.967587942132,349.4472429916323,349.4792584533118,349.65367492775283,350.54335333094684,351.390148587065,352.10332490409945,351.9253263254418,351.7985674385229,352.0138053118018,353.4093813624837,353.52884066628565,353.75308889856154,353.2359035217577,353.35055037898405,353.37067730496295,354.0639386158026,354.92826920396175,355.25038960901185,354.79106705935135,354.3979271665819,354.3405502887033,354.66307612723574,355.4498186792031,355.5943552596781,355.34779130305594,354.45289267186337,354.2099658012541,354.06685707634415,354.5861588561201,354.3673492033769,353.95232459702515,353.38401630998,353.1331829546497,353.87414003676855,354.6496338504291,354.97381130564014,354.4188277421966,353.63036804760816,352.7975402105098,352.8786045870942,353.11619276011976,353.20026013263936,353.18417735536207,352.4807781256,352.6167522259519,352.74512348242246,353.2319062145813,353.4011485151499,353.46834726351346,353.0565252110668,352.27375637627097,352.23348592063314,351.7746378851548,351.99959380971063,351.31128841525674,350.93445588875164,351.1877127847996,351.5938915663225,351.7609197824439,351.33225943256167,350.4453410392497,349.61111997640944,349.597176949217,350.0395851537187,350.41816189485326,350.5771126475714,350.15023627287883,349.7636325539776,349.50430655865716,349.8366030443683,350.23295451984876,350.69652212178914,350.0535261679181,349.5624975855147,349.7191988123284,350.53591518010785,351.0872443003782,350.7188420259758,350.0096956836823,349.16357311451713,349.44133656009006,349.56975451626965,350.649445446182,350.38904000187745,350.2480757275971,348.6681442135263,348.45418900294385,348.74388333917653,349.440096382894,349.9908010138965,349.9284551301605,349.50403719279717,349.8283753838521,350.33337937116755,350.791912262249,350.9437354183292,350.9132176159711,350.507152348285,350.5289815017872,350.84819330749644,351.3311412595358,351.5910332716484,351.0538912734408,350.3677537727455,350.5289177476907,350.6551664239782,351.7407957914166,352.0802018892303,352.0089501159677,351.7955423997401,351.6097753742146,352.22973411130226,353.10802452572415,354.0331120681487,354.44294317030636,354.1761972380773,354.1690429795808,354.8827379891171,355.74741095156514,356.66849255296586,357.37920482477347,357.49761513111304,357.75615900220566,358.1373112933341,358.40532648522304,358.1728681110722,357.9710902701853,357.1928020809371,357.14180538244386,356.983269626831,356.89374624953626,357.4061492061817,357.1850052272141,356.6704422783302,356.2072276247228,356.35611650484736,357.3718327935215,358.7136025350816,358.3957282335699,356.8445334615675,355.73798691524314,354.37087398115943,354.0945569551799,352.97672845318306,351.6464357295819,350.26884179086176,349.60423612397784,349.00634610425806,348.66947088858825,348.2162091503577,347.85571599805274,347.8964037425795,347.91239401296843,347.80956011222264,348.31390229374045,348.2938268797019,347.8696135413279,346.6918279789486,346.27192792398614,346.2518122048533,346.87381299355803,347.9437187400795,347.65912341331807,347.6198578923301,346.63605093471756,346.9872045586476,347.0188372253317,347.09969791080107,346.79407324319334,346.40531144230033,346.8400307657253,347.4377328895987,348.0861118172338,348.1238077646584,347.08950402090545,345.1393344107218,343.28855807841865,340.57860537554296,340.1066418273019,337.8657376398578,335.601381026642,333.626644066675,335.33859874533414,341.4517378593996,350.6604831697634,362.2943889485419,376.45225639408477,393.26266773286864,412.0142537936524,427.136153923674,435.44247961413373,432.97106832310965,417.9793226031378,393.8524804536876,368.6084098471588,349.0769554849577,339.5157317333942,336.97036563908244,338.0756951313762,339.5476969614771,341.2188303953574,342.46167363215835,343.1159747986243,343.32111757846087,342.6781453811457,342.20003685201965,342.0560908883418,342.68719361298196,343.2628357749338,343.6024985306042,343.4567332847231,342.74703840923365,342.1898114153022,342.05315750877327,342.68785155379624,342.6629495468716,342.7324599449666,341.9302295254081,341.46686552648123,342.1301452474056,342.1201494613057,342.7874852645645,342.3546182637065,342.14289482358646,342.27512434563533,342.7790990415389,343.7472888306413,343.97368060639104,343.5139515281484,342.5256183932731,342.99802150392895,343.62381800513987,343.86890802454656,343.6253636985157,343.1252864138469,342.3624674943819,342.2256123045886,342.4705960100515,342.96518958426805,343.2282107202841,342.6903299847724,341.8040729647472,341.67527985252406,342.0260323591364,342.614934389417,342.66795166257236,342.23585569740055,341.55480963200137,341.4104667335299,341.15173618172344,341.7718898542373,341.953818698202,342.0137145723781,341.10162333647105,341.24423310455757,341.58270717794863,342.2586529858747,341.9079319918088,341.8916707511158,341.71001986285376,341.8199154693015,342.02350323339226,342.3078290648653,342.28343338508716,342.2704368775024,341.5723064868706,341.3078628317814,341.25599153406745,341.7718072817076,341.44861005921126,340.7389791329541,339.7906205403918,339.7735200163327,340.02179297216384,339.7102343505752,339.7133986338631,339.3288183507781,338.54788915076796,338.10616462492277,338.16729731121546,338.1863269031931,338.2823187892796,337.5765677153763,337.10705567476725,336.9658188304928,337.396356274737,338.2818912447385,338.31608762402624,338.37010105656174,337.7656905659706,337.9932104188734,338.81205495075784,339.95973673151843,340.36141041588627,340.0839426426298,339.9777323470742,339.8969162505148,340.80626757012055,342.1648408089683,343.35144458104554,343.92418573049935,344.6362184844228,345.6719797892539,347.0845900863162,347.9621715062215,348.5476619203731,349.2745083286703,349.60889148754785,350.2558300091891,350.8067639251632,351.74687030328244,351.97231828857775,352.11404057040704,351.5956820570508,351.81451386862716,352.2294902037161,353.19779979638287,353.4286354999951,352.96867823518113,352.78013431324115,353.01255937257883,353.510365315709,354.1738537655856,354.2157890459353,354.280517859424,353.575184654732,353.1072148742922,353.5658800235488,354.266345255108,354.8083887360672,354.3462633004413,353.64226739817457,352.60057346506926,352.7878579568378,353.2305784289047,353.49907818071296,352.96351716951915,352.1768702324884,351.9429806298997,352.2940074568806,352.588150595661,352.35589209737293,352.15279786534836,351.774565501864,351.9036318316394,352.31609013332485,353.1890139017518,353.22474479824615,352.87931206500014,352.2947971568377,352.0412945389082,352.1831954152127,352.688775502294,352.55640145412474,352.73774115217907,352.2352928696848,351.3513482989068,351.42066794157046,351.5613991879762,351.9508966435227,351.8243852084251,351.3112359074026,351.6432189442086,351.95227725741944,352.1202251899186,352.09637487763314,351.7891699966225,351.50572275628724,350.5352553623545,350.89795109406793,351.3283396771789,351.8886854614377,351.6391487430692,351.2236082897747,351.3568621483578,352.2709764780934,352.21860806867744,352.2755207726615,351.3752935579331,351.51745928347026,351.25536235792987,352.16135891793,352.22916393620704,352.6804738572931,352.0545181103249,351.6632504016191,351.51411157440276,351.5411319011989,352.0472378262199,352.2205815136291,352.3866090330076,352.16964047266816,352.27218752471623,353.0779086001308,353.73249519375764,353.9594798103056,353.71540124979686,353.51625594699493,353.4384171401604,354.2522663456423,355.0154658257099,355.53661339143247,355.47239603914295,354.7495495284712,354.9889027216193,355.6130773874955,356.7699009945443,357.68085108089804,357.6774623962279,357.43208432614375,357.5445226638814,358.8511696504987,359.58021538428096,360.47843074826096,360.59706769337294,360.3462250779183,360.7528353614355,361.2450469780323,362.1001058830266,361.83274235694705,360.9033575880013,359.66319500275256,360.07167237046235,360.11325663133925,360.89075354990996,360.9497994909376,361.50797234795766,361.27711140805525,362.0607458121994,363.4331071389873,364.72530735244067,364.1920792754286,361.7541306686066,359.1026895027982,357.5571589914298,357.26700757528863,357.1587916716641,356.37871003765235,355.32312491453416,353.9149082523907,353.13809834165374,352.5473496702978,352.21572759940244,352.261846136515,352.27612131320416,351.9731016275141,351.9875388529641,351.9019679759761,352.20552465855303,351.8946253682736,351.39499249865867,351.0355191066534,350.6784744197344,351.2143003236806,351.4053612628293,351.8690169206745,351.5362810908248,350.8297350994251,350.38169919048755,350.5394282855044,351.1539436262004,351.11533140441475,349.6865362484692,348.2599066173558,346.0026778567088,344.7868707762968,343.0605225683497,341.3076303327677,338.98159235494415,338.8855388656144,342.2066434389721,351.0453908847707,362.33739828381283,375.7308605415708,391.4965870587308,409.93862761998497,428.72823926606424,442.8666566556976,447.5202552039119,438.1806544070196,414.9149545194535,383.94521955367634,357.9569912963435,343.604889457499,341.42190596230785,344.54866022900967,347.5014716904342,348.4974934040278,347.9000517452769,347.4801227425348,348.03099127560944,348.42444429909284,348.37722822126494,347.75991637398215,346.9931427702377,347.4623470427891,348.2772255093487,348.5130213723931,348.7604876559129,348.03632454858473,347.86015938977516,348.00517580308207,348.4067332403572,348.47940454782804,348.25569311059076,347.66324511707904,347.4040530886165,347.8466350897153,348.33746559108346,348.49079496596005,348.25858697214784,347.0625309030946,347.3339441062379,347.2801762495334,348.0692939822115,348.2325264884128,347.7849089764688,347.49912822675594,347.2357981398388,347.4632536816703,347.76504740892454,348.53858494547023,348.48481838228025,348.14882983361247,348.1683175892054,348.5841426288591,349.16237698909686,349.6126740191022,349.16124744959006,348.5613039265654,348.11387243119225,348.5662411821121,348.6659943193348,348.63838822492767,347.83478087278695,346.87634154511426,346.9644438791049,347.407960728789,348.0813797696053,348.1255329750803,347.8896543627658,347.09924063310774,347.35055525020636,347.5775102058343,348.553596727198,348.69344465334837,348.8376479309727,348.5234453707839,348.43194533491226,348.5522304647152,348.65079121001867,348.5398489162633,348.2404679936859,347.8609841545026,347.69492739259056,347.4222044226454,347.7441434092382,347.64168260840586,347.5307086991178,347.14138043462384,346.1663955433129,346.33461120110314,346.47494966277924,347.2595219568059,346.91327641902075,346.3913600812087,346.13476817498855,346.67369358719014,347.05957691189104,347.513336475046,347.57135433065315,347.44576545971506,347.94914401048163,348.73025452649017,349.8660300731515,350.97018577001796,351.45818920784154,351.478581251107,352.3531614770526,353.3084128635921,354.6169212829678,355.103733292672,355.713967271218,355.8591149718055,356.02134588784884,356.60597695701733,357.4686338577567,357.7962694592613,357.93675483414916,357.4133487853295,357.632494819026,358.0477078197822,359.01598986805965,359.24681511560794,359.3868597508167,358.4683162566788,358.50724119962524,358.95122212718485,359.6270768336595,359.7710850519578,359.7300919057192,359.0249411521161,358.76224834710825,358.7106405250388,358.8263555563927,358.92315019592843,358.31252471238395,357.8382162545844,357.49246295165165,357.83346603968823,358.23370355043306,358.49664152049394,357.96348274645374,357.2769937866526,356.8379761733447,356.69425150200016,357.12338861623283,357.1091179940884,356.98837466948396,355.99512536682136,355.95082499818477,356.2027024817497,356.9923236260033,356.94024869461236,356.9033713839692,356.107818996071,356.24944048099803,356.18213702614656,356.57842112464283,356.66197209246053,356.1379803391449,355.06000237841977,354.64010086412173,354.6149948378729,355.0372452149003,355.21738799736136,354.8872683393869,354.2947671831626,353.9408982238726,354.1882167296483,354.79354425232395,355.1509119509014,354.50277718983875,353.917315542963,353.67899536335995,354.12018445468385,354.61004100909787,354.66348872681095,354.63632351320456,354.3350093879992,354.65143335493985,354.55067786285304,355.03989443911036,354.7204713849018,354.91198170879943,354.01837734531495,353.5534820472943,353.72140703036956,353.93625554611685,354.8171168711757,354.2623313791354,354.14602758748447,353.979582051669,354.4937195180423,355.17633492151447,356.3164972780222,356.4253583900232,356.56290721659775,356.950586719669,357.42432530318666,358.7812543988573,359.28972101489785,359.6964512293123,359.45069138778945,359.9426428691449,360.7303332871533,361.8663511921851,362.7701657760331,363.16817415158914,363.3030830036189,363.2764371422396,363.87102399270714,363.9426269432527,363.70931745320206,362.8174027801773,361.573663988331,361.38044666157464,361.85229446750475,362.5383629435461,363.6804671294475,364.2890584963503,364.9015237187101,365.04047088924705,364.1029002696022,362.64283144205757,360.36271341441704,359.14972275717633,357.32437819142035,356.97629495257024,356.3849663428005,356.4319369352315,356.3591548360984,355.76044541143347,354.49401998762346,354.3872767300471,354.4559351641165,354.8578394052918,354.9343112715296,354.510392466159,352.9277648131156,353.1280921360363,353.19720715254243,353.7837350355711,353.25095289059436,352.7482656036917,352.0000390752857,351.9625847660512,352.30186880793315,352.9867773213008,353.33556769353834,352.883882749258,352.1890274778602,351.54635448864417,351.9132309016748,352.32702073048404,352.28798741839205,351.16924959255624,348.9271381494526,346.19518061289955,344.4438840618824,342.86804676626093,339.8344034585929,337.1648774887574,336.5500359526325,340.0142543279305,346.67178548597184,355.1656980093049,362.8081258252361,369.30130880827295,376.89452826832456,388.79020814617013,405.6157631792753,423.57970143372773,439.14022676934985,448.36400358984616,448.5247884820402,436.45556039640576,412.9509825560777,384.72967285237587,359.91596722957735,345.86771799590235,341.31081573872603,344.1410733132686,347.52740554740024,349.91657605696656,349.9278009197817,349.30778115116266,348.43822089645283,348.31269989761927,348.6624539602964,349.15124230710427,349.60931518662994,349.3619721253133,349.0514356344028,348.5793296120142,349.0184617376791,349.6201104325154,349.2680713914903,349.2555909087997,348.1738168849855,347.7285296103108,347.9048826752352,348.11832938572275,348.79883939695213,348.5541415608663,347.9323509521091,347.8756753743512,348.40959868367696,348.88573629709856,349.33523325096127,349.18895152259705,347.5737907613221,347.36186288580404,347.15321731764374,348.5742459898276,349.1136268346265,349.51560635877735,349.4685383403298,349.6507927650447,349.9440334447313,350.5202586895112,350.77678539328787,350.33514779586005,349.8444033405426,349.69102244317986,349.92322871081393,349.91928744230034,349.5078741923443,348.82864191826775,348.28317419446944,348.24440919436313,348.6736208305584,349.15409849875397,349.2086140335344,348.98186437338563,348.190476079654,347.8413829773481,348.19840704714994,348.89801049877514,349.1451791227037,348.59784051892603,348.21284901791853,347.9594655231578,348.3913842729462,348.7824575101948,349.4413079108429,349.08881172894814,348.5734940180105,348.7168847126521,348.23548106346686,348.65238171119404,348.555606861267,347.9396005713769,347.37523962836786,347.3342579900128,348.06452511908105,348.7300608445453,348.8602707018187,348.02048342268176,347.355962293775,347.13117771417717,346.9756429996024,347.794658964311,348.0614849018044,348.00719280669426,347.5965661145751,348.1198120539366,348.8141810915744,349.9533003427245,350.16162592828505,350.69425368644954,351.15720601926324,351.70742701471437,352.9567683483011,354.06679023184927,354.9488220709925,355.24921938485795,355.2900979272075,355.27303413439677,355.87184339691976,356.3427561234342,357.28927002398234,357.2183986926292,356.6746165641694,356.20534923716014,356.7560017099335,357.3519324526453,357.7946032918711,358.04267321277416,357.5081361747677,357.12245953062296,357.7684702147305,357.9554535127324,358.31380381362686,357.9865371336821,357.28498295263455,357.53642399568423,357.55892965258414,357.8452323175866,358.22979190149147,357.7962487890461,357.29869796547314,356.64525266227406,356.80280246861264,357.32759724345567,357.0934800143966,356.77894613710737,355.60637869242487,354.9807337585234,355.3706443774526,356.0824310932012,356.2273462264674,356.18451113401665,355.77940713197574,355.9018040867004,355.9159394390663,356.6091128237117,356.47374738686113,356.3458569894714,355.4590197811834,355.30975616146725,355.3615612028675,355.3664341317833,355.96360023326747,355.3334982817475,354.43514507424925,353.3115678322002,353.6126643546775,354.25378839065615,354.4066773627334,354.16697671233055,353.0713172962468,352.4380852995711,352.2245298702091,352.46686924151095,353.265430044414,352.8133850357038,352.69605924599415,352.3245277859151,352.74897064840457,353.146325078284,353.6052352136656,353.5624219854026,353.34161714004665,353.75479804372753,353.7451792408113,354.12500113577306,353.7064909811708,353.6084253941528,353.0342541812338,352.86786602123067,353.3048939898768,353.79136199944463,354.545187200534,353.9831725400011,353.37358201297326,353.2321622723513,353.6697127857338,354.85490624709576,355.3737690483586,355.0885662352273,354.57688323582073,355.0167275264476,356.32031946188664,357.7331476505833,358.3973266443765,358.79347628525204,358.8404598535186,359.31830319306147,360.092061847671,360.7294817479634,361.0589228202183,360.91057977159096,361.20152487040957,361.89439476789994,362.94520401808455,363.6580200607008,364.16983879606073,363.30860705716196,362.52607770733886,361.50826576177496,361.19828282654436,361.2646725705841,361.37685223014364,361.66792375996357,361.34776120049463,361.8492157519771,362.7401511523764,364.57053165478237,366.03446585964207,365.9697501242788,364.399789200804,362.5815230337459,360.65093438827256,360.13837712889904,359.6605344241415,358.91005442234797,357.67147055767555,356.17092375099884,355.50788028456634,354.8160597982217,354.08380299586054,352.6550068602959,351.5630595071922,351.18909668162564,351.56239219055914,351.8624255563908,352.42875911265253,351.7854407665479,351.78929000604,350.72126346137065,350.8744723266295,351.1202132106,351.10026572313853,351.08897605331305,350.49053791117746,350.32102430177554,350.3594218893524,350.86597769044363,351.3387300210102,350.9897646144273,350.5835752682281,349.8213330058672,349.1797545862953,348.44994562039193,346.11851498966564,344.2715769694971,342.0804954020419,340.78239638142304,338.55685541082676,335.63303741038754,333.4905053589393,333.24382286153366,336.2632835889764,342.5246446774745,351.16060358667744,361.8157375867924,374.3511829413265,389.19165397359404,406.322858154254,422.7242743936076,434.94764337260693,437.6164041116893,428.7717976257852,407.68058991312625,380.17738062305443,356.70710147319096,343.65577589518773,340.7818561315811,343.2781183986616,346.29700127348787,346.92124401639256,346.739087735506,346.6169834124051,347.1321964426045,347.5125410072496,347.06776312750736,346.37098479326215,346.12806260396155,346.6750476301388,346.659844488295,347.13325539407833,346.7103450058814,346.70781998000206,346.32909175070586,346.44815441346464,346.86113769179144,346.9345353947372,347.0102163456736,346.1027624129794,346.34435106206735,346.87764432624766,347.6389002305842,347.5741727721584,346.6393463498629,345.88932404389897,345.07356648031197,345.45185547378946,345.57372890229493,346.0487207811958,346.3188775158255,345.88162008514894,346.4899751199513,346.58142023974506,347.34643023201517,347.503607476412,347.6574981145787,347.4419447204505,346.74502785824853,346.99065137106504,347.0132160385343,347.29980662952005,347.28434886659727,346.47079222519415,346.31224294541045,345.6608482414698,346.00134544065594,346.2168903158937,345.8890882121725,345.0947010735967,344.75081053571154,345.0077244195346,345.51207325223777,345.3740101164114,345.2556958315676,344.6685147026011,344.30378947329166,344.4513847912054,344.96224128677517,345.72931869610096,346.0654220008562,345.8102629651521,345.60621575169955,345.8291760641574,346.4282304092072,346.38712967633177,345.75923199572304,345.0926819163972,344.957404304394,344.3974956889605,344.43225500033225,344.25851246553543,343.9654616267066,342.98880129538793,342.8522868538953,342.9079455925359,343.6119883776785,344.07400330148926,344.11570041604165,343.49051481412346,343.51968923849176,344.0494897973693,344.721541048207,345.66144845772124,346.3808505247036,346.7978850508788,347.14106322122086,347.603052586395,348.4627942096192,349.2967076601993,349.5120249065091,349.5595633716646,349.44642058609134,350.0497008021123,350.72519393058985,351.1612552633649,350.9056775403023,350.89665335981664,351.40988345499403,351.9846731592595,352.9302721692874,353.45425273357273,353.380773754857,353.05824867557857,352.5780488784783,353.21818512229714,353.91018829996125,354.4435813288871,354.3823115185576,353.6587053576278,353.69794915619076,354.4321672743091,354.79349417847504,355.23871692736077,353.99838944470827,353.33814468139656,352.5331732936948,353.20643410124546,353.913019630253,354.0440273134251,353.4021476528161,352.527691251688,352.1035080547748,352.1684400346769,352.2864025955275,352.3772578684898,351.36681697679916,351.1127962577355,351.17601933827325,352.2855592201996,352.82692107207635,353.34437598538625,352.5914351471269,351.70320944337436,350.88526777047497,350.9705761393076,351.5072078045109,351.67611080280915,351.140834069634,350.35915275637785,349.32500065869937,349.51579232924615,349.9579603506027,350.22631236600756,350.0907863641695,349.28414506349117,349.1312534286169,349.37923007539456,349.67447582479946,350.0473147049903,349.5139104735105,349.121938741075,348.76820753927075,349.5054926859827,349.68631498873737,349.94040961626405,349.61866376974996,349.12204633069933,349.06296449497756,348.99074945871615,349.09731430231534,349.4955968119484,349.8703544442868,349.73170243718823,349.41989715592626,349.1424200203443,349.4718841411865,349.6692847919235,349.2429415533445,348.5543886827366,348.51013348819595,348.5467738914534,349.5471546310175,349.69530357387646,349.5378770897553,348.63834096681836,348.7911890971713,349.0285234968006,350.2090143703014,350.4381231066449,350.2676431261527,349.56471168836015,348.80838225927437,349.2813453026183,350.09551362190535,351.1311570537738,351.53866646621606,351.0665088240005,351.1697412354892,351.6881874970256,352.5571035633743,353.18773544698,353.8127580494823,354.2499753251768,354.49686333126704,354.7626580671779,355.63702393007776,356.48001590013723,356.59414800848924,356.3462918045687,356.2529780093471,357.07003650930426,357.73384927406744,358.1598057108314,357.4053172507551,356.2217438519207,355.51864694486625,356.2129804601607,357.31341862974864,357.82368004550455,357.54314506623734,357.6316587444129,358.6412598094675,359.68635407230596,359.4836193059113,357.84150133108915,355.63374396815,352.92623773503806,351.1720009148406,349.6950880675061,349.0566455508827,348.5624133190806,348.0190470565018,346.7709269812209,346.7605012981139,347.4234285860333,348.49080350579266,348.60428839540873,348.34524540494,347.25252330998256,346.6201115642539,346.4063682562882,347.0486760089729,347.627247786737,347.36620381021453,346.7503274201524,346.4941734384817,346.4377749570683,346.75340258022254,347.04044112313545,347.4103078148321,346.7774625531016,346.49061148160337,346.13659629826475,346.76863961100656,346.85473820453643,347.0188311092229,345.706321534312,344.5637423678233,342.3864968048933,341.15248804136417,339.82305075768716,338.4512230600475,335.78628630911334,332.488124531542,330.38627945796725,332.25627980052457,338.06787203707546,346.58379240812,356.36741677774023,369.852439540707,386.5890071840776,405.27792766376075,421.40665325760807,431.5657709539316,430.65137878942295,416.28914251283226,392.3529739348873,367.667894177614,348.698956594375,338.4816574614006,335.3409692972112,336.90886866206944,339.58750810203594,341.8751811617947,342.32686553680844,342.38989766506984,341.76416183990614,341.59229702475125,341.43217705676716,341.8487762959241,342.03595233236547,341.40576356858554,340.8279142049525,340.9883161113231,342.0091884841862,342.8501247702245,343.4570343372794,343.1846420446248,342.2679161809048,341.92737208872353,341.8902355865186,342.3091196162379,342.0900322398622,341.38004240719494,340.92649626764717,340.6846730662579,341.3194415333047,341.7997942700219,342.1440382098337,342.00280837600724,341.492657670708,340.8252266976642,341.2841057815814,341.49453337603774,341.66106804211904,341.14221992909216,340.6598356014395,340.20989722347343,340.45651335875436,340.9666794708886,341.3288403585179,341.08522400852974,340.47929678164763,340.32177396049116,340.4599464628931,341.46091397883083,342.1039569779138,341.9217564521628,341.49871432849613,341.32897646096706,341.95861546052686,342.53562040392535,343.0752882067774,342.6194545694649,341.61526286118783,341.1882641284674,340.95982365051725,341.2925956110508,341.58737903692156,341.3560012676014,340.65283098477386,340.39955838738126,341.04738053139226,341.1276530540614,341.29124832072733,341.0790549312606,340.88148483740065,340.40197301156695,340.73582710755164,341.0431099940441,341.6110531449202,340.9672918430518,340.4710827506014,339.8280812703174,339.6850417989541,339.6243438465365,339.23453071772553,338.6570562717869,337.70542065052433,337.48187615388446,337.1406351597796,338.1688744343168,338.13452452029514,338.1848300522694,337.6840322713718,337.70655688381794,338.1304705422406,338.8081486286971,339.3530690414532,339.7919391164925,339.9427495921027,340.61326556457027,341.6721992421664,342.88572675966316,344.07210369990855,344.5521084770214,345.36878939115354,346.0039551065913,347.4313627751128,348.42823410591484,349.4070201559486,349.90823728690685,349.53423712785724,349.5278762792618,350.14689432964406,351.0162614695547,351.5418422100401,351.2720948160202,351.059303148697,351.48343010176416,351.97286333747695,352.727185328038,352.96499756672426,353.1153908552619,352.69598057890073,352.70943142829185,352.82972939964037,353.62304195860344,353.57736143208786,353.63997983046545,352.23913293687235,352.10604436163317,351.9827411350748,352.8955607251646,353.256084906988,352.8924177183924,352.19257486873096,351.7457503706438,351.6030837380313,352.2325582945662,352.1082178983701,351.9829611903532,351.6954410455639,352.0160798882041,352.61442395331164,353.1684748079242,353.2108550619383,352.9810335065069,352.19040557157774,352.0414280460958,352.08840831911635,352.0935081817394,352.09090417495725,351.5907793821652,351.4159158221439,351.0496652397846,351.17672094690363,351.5886806906656,351.66172991812164,351.33747946956066,350.8500395306159,350.3906240499912,350.63796682096967,350.74857045645194,350.7306731361289,350.8260378203709,350.422164452175,350.3375898863727,350.36201228307266,350.86501989152777,351.73864839127003,351.96981658586014,351.71457675114345,351.4157803331498,351.6434821457854,351.84703687605327,352.6254740489081,352.676374453752,352.234907574867,351.6544358985691,352.3055328263282,352.3020015637552,352.16962328049584,351.37641875778746,351.0226978980858,350.68004416720635,351.0148628967354,350.9152546468029,351.4034941228231,350.8840625615187,350.58562216578287,350.226515763635,350.35939310352916,350.6707045566418,351.2484951169914,351.50404001631836,351.4623732433345,350.7516793370174,351.5892973709824,352.0829511646,353.11638757322083,353.340033063109,353.27717896818353,353.3691393984354,353.96768408166906,354.9331588259948,355.65495785461684,355.9705941659695,356.0187223989707,356.00053417175303,356.3990371714638,357.38002143283916,358.11104706978495,358.5254465748688,358.5681753177673,358.34531890536823,359.05432528884324,359.53001779028943,360.1707828460434,359.7149599681834,358.9057128592887,359.16896635862645,359.4962660391042,360.3667383801134,360.6068497790391,360.5513205920424,361.04209148144594,361.62032939632564,361.8668789561114,360.72563958237816,358.47037407307556,356.44019931722727,355.0544713304849,354.02526646761436,353.44601311009507,353.1264360211145,352.4713775434396,351.02010932177234,350.22542565673945,349.3377232510744,349.8218425546093,350.14202170971583,350.30180678678374,349.877808575175,349.1910192319021,349.0465586096461,349.5881211079226,349.36826601412156,349.9521806438978,349.533977667099,349.4256920844502,348.7520165124226,349.0911145701564,349.4078434458711,349.97505209919865,349.33085522274655,348.83470463390273,348.5917220071675,348.62867866794653,348.93897996624423,348.62161706829045,347.92197014827326,346.4728206391718,345.58026046062776,343.49734594501,341.9461196797181,340.12782671876363,338.0963026800759,334.78879353005806,332.55574518949334,332.73277306402247,337.23557408732427,344.7015826424327,355.00314216351217,365.21476375970275,379.28910470383926,395.7748065768229,414.0468044359669,429.70891944936056,439.21221380573365,439.0539433372453,427.58669214285106,405.4679682259952,379.7472669815577,356.53923823962236,342.68567473894103,337.73875435107186,338.9787785454994,342.3641233551715,344.3328549049665,344.9651510869931,345.03509970040204,344.1999874606302,344.33824564194833,344.57308834487105,344.95443330065905,344.72362391772356,344.31609713908097,343.4480139471598,343.511794445688,343.6520095803577,344.5418097986977,344.69030903104726,344.0383940585127,343.76356484552196,343.1099020547983,343.656326654984,344.3616885645109,344.8990992390253,344.7369606098232,344.51819700755755,343.93724211913093,344.3772280436656,344.6842764918602,344.8469247732237,345.02343993674583,344.40648176450156,344.02850391493763,344.47825071602807,344.37466226845174,344.35735435077606,344.0633991690386,343.97896232400933,343.99788192534766,344.4011577875322,345.3800480143561,345.3109397099056,345.36545061378695,344.4661804838154,344.20841844511995,344.3662700535533,344.77126557506637,345.04312321856906,344.9092805603182,344.60237981105564,343.82441698143134,343.6786601603756,344.3248461429097,344.7998246848358,344.34376645861266,343.7428204428276,343.49567065492795,343.9380754451122,344.228312694998,344.3916805929945,344.3690003356004,343.5619659535703,343.4034516855415,343.5517291180445,344.2522409598207,344.6098014961068,344.75689787720364,344.33166503133447,344.54557185457315,344.75613815570466,345.4349144994861,346.0904473672405,345.8237319066637,344.90429103630487,344.4635988528516,344.4316055055422,344.85523978208033,344.8356577356189,344.015455124115,343.15744435701333,342.84135502594364,343.6000600308522,344.2779292471602,344.3061005360994,343.77079851083704,342.7961550476532,342.37165232207553,342.34160963151356,343.0643369023206,342.82970267330825,343.20529802121854,342.49824996527366,342.8148226006754,343.1343463717026,343.70254155138116,344.1581556038458,344.7069651422387,344.5567439626958,344.93681454475325,345.32532207462754,346.28689316903103,347.11938923781713,347.5296858796576,347.4675462441263,347.7501383938108,349.23911576810315,350.6505372919043,351.5055173469996,351.49219726805484,351.9501142692473,352.12788442313496,352.9961000653809,353.44380077557423,353.97800495795224,354.12890971332376,354.1946542664362,354.183821801012,354.38107619662753,354.67175510011805,355.24735843516277,355.104044323236,354.4824298620801,354.4206762907342,354.3548446923593,354.5612239508453,354.7541965678398,354.63422897406576,354.4305787229048,354.0467596151515,354.0761330830972,354.4938553650876,354.57150057759077,354.4467322028661,353.6490883609772,353.2952089718079,353.4527851333608,353.8626002947416,353.53423072859493,353.1301584488332,352.56678054112865,352.41515305050194,352.95090332041855,353.431697181454,353.3808699749064,353.45937164218196,352.7579879191456,352.7891320219336,353.022644002946,353.709411198756,353.8633972399149,353.7213595780665,352.52076215910097,352.18789391314164,351.8645671963879,352.59737694452355,351.87690279295447,352.07628601312615,351.002340559696,351.04606867135885,351.5975795384473,351.4678175895097,351.7467301436021,351.33927261334446,350.7456998621527,350.1957513762252,350.2529274380811,350.37756605928473,350.5684753251317,350.3526979307792,349.0539413372045,349.0296680366008,349.3958195313097,349.9787256216045,350.8312727423543,350.6595000818021,350.3254613587922,350.1507519279703,349.87618933566193,350.4986529368184,350.481257886376,350.0510044588403,349.67338688273924,349.41378043292104,349.84564163421703,349.8370288966432,349.915866473457,349.61235523149503,348.92358891475243,349.3732027926877,349.685160414628,350.74708183963423,350.67838788728693,350.728726513654,350.929644279953,352.1170814603197,353.1476637129864,353.93676274133475,353.94577867728395,354.3058729290691,353.9874174196824,354.78533548256246,354.9613623548878,355.91266510812744,356.1562986268492,356.1965518132512,356.082357477995,356.38605453543767,356.9765793993284,358.3318683032618,358.5345776148705,358.35667770409344,357.9554372340519,357.98439425309266,358.10300842564277,358.39562986606325,357.87506808541474,357.48646510242617,357.131923340608,357.4690805778483,358.06994980407717,358.6230484809037,359.665350085751,360.6855800716673,360.6824534921291,360.0315983218102,358.86429740930305,357.15520521344433,356.19902486886264,355.23228849588463,353.4284343317627,352.16696385861763,351.120230090481,351.13564030254514,350.78720648034874,349.9038576608553,348.76544679293977,348.76653477731026,348.8234009214875,349.32050321506017,349.3928047931726,349.0643345995884,348.277143030362,348.0329261185025,347.8844965425568,348.604128866947,348.6755687295248,348.23601512017643,347.254420807515,347.12547820361544,347.48100504944347,348.6696758373471,348.5924659556605,348.4368929103497,347.2485320566995,347.21572875164753,347.87678695958266,348.8453742144385,349.16389194129897,348.5995366922131,347.4118285683244,345.9994317369731,344.5294369847351,341.8735565639146,339.87985032256756,337.3123296556759,334.4403910010879,332.01236396716183,332.1773622515875,336.0905136890626,344.1866062029675,353.68614400539855,365.40636248958174,379.54537467525097,397.4524131417584,415.1501106091495,430.56987381245466,439.8140007789198,441.6808062704313,433.2252596475324,414.25469670410183,388.7260021824183,363.850965055674,346.27115163809543,338.79389416531154,338.14674770982964,341.052967906243,344.04001421919634,345.645350893728,345.21573174435383,344.7569458680959,344.10136611937753,344.65708440062633,345.0620774739998,344.81404190626864,344.6061940309866,343.52898820313726,343.1932408882938,343.46388854542846,343.36714352831393,343.85844839631295,343.43872040376874,343.435141559996,342.8563069018118,343.0854275769096,343.3029132760639,343.38058295735135,342.76582518832925,342.59267959271597,342.83207476094776,343.12876228231687,343.5019581478367,343.7684639784923,343.93647889368356,343.81475285639124,343.7124384124963,344.0236404365556,344.2131960575474,344.38815817529485,343.7699322883579,342.89209547681736,342.5668986117412,342.8270502955721,343.3303025546343,343.7921323574897,343.9438782543938,342.81319946940584,342.86214611381007,342.4162327208393,343.23608105826753,343.0173843110447,343.0873267315344,342.49476444787103,342.32089544102973,342.159217005555,342.57599437767084,343.16323943083876,342.51303830957454,342.21618611297936,342.1635387788723,342.3810137554074,342.97277237328603,343.1323106935654,343.29474584665746,343.2786471729889,343.47133034901765,343.96250112389964,344.6283084263541,344.57045952248734,343.5400616025579,342.89447394374776,342.8782732226847,343.5113626416784,343.4805182067819,343.650405957577,342.943453791782,342.37030701253207,341.5343119597843,342.20476905138423,342.7130459494416,343.05410924995874,342.21164224002996,341.7367124255006,341.80258226672345,342.2230352653888,342.8987191233944,342.74391228056083,342.71786842980225,341.7269109644818,341.3777610302858,341.64476640026163,342.5488736284727,342.8903179985633,343.0280404186483,342.30408207913945,342.63339387511064,342.8531262022875
