238.25,289.8671875,328.34765625,305.10546875,301.4453125,308.2890625,307.9765625,305.7109375,305.62109375,305.125,305.55078125,305.68359375,305.8984375,304.8125,304.80859375,304.48046875,304.56640625,304.7578125,304.8046875,305.61328125,305.5,305.55859375,305.20703125,306.4140625,306.91796875,307.6953125,307.4765625,307.953125,308.75390625,310.01953125,310.82421875,311.26171875,311.5546875,311.35546875,311.83203125,313.12890625,314.25390625,314.3359375,314.26953125,313.8984375,314.140625,314.921875,315.3828125,315.04296875,315.1484375,314.83984375,315.140625,315.890625,316.34375,315.51171875,315.2578125,314.5625,315.0625,316.359375,316.73046875,316.40234375,315.66015625,315.45703125,314.95703125,315.6484375,315.71875,316.12890625,315.375,314.4765625,314.4375,314.9375,315.171875,314.72265625,314.04296875,313.609375,313.28515625,313.48828125,314.26953125,313.7421875,313.1796875,313.1171875,312.90625,313.72265625,314.3046875,314.29296875,314.26953125,313.66015625,313.58203125,313.51953125,314.0546875,313.421875,312.578125,311.7421875,312.078125,312.703125,312.9296875,312.953125,312.140625,311.734375,311.5703125,311.84765625,312.6875,312.625,311.9140625,311.640625,311.28515625,311.57421875,311.59375,311.8828125,311.671875,311.65234375,312.09375,312.22265625,312.8125,313.1171875,312.74609375,313.3984375,313.6953125,315.17578125,315.93359375,316.1953125,315.92578125,316.05859375,315.84375,317.36328125,317.87109375,318.9375,319.26171875,318.8828125,319.53125,320.578125,321.22265625,320.38671875,319.5859375,318.54296875,318.41796875,319.859375,320.98046875,321.14453125,320.80859375,321.3671875,322.546875,323.4296875,321.6171875,319.1484375,317.09375,315.94921875,314.5625,315.0078125,313.5078125,312.671875,311.94921875,311.37109375,311.84765625,311.87109375,312.23046875,312.00390625,311.71875,310.609375,310.87109375,311.3515625,311.38671875,311.375,311.0,309.7265625,310.4375,310.9609375,311.60546875,311.41796875,310.5546875,310.09765625,310.70703125,310.90234375,310.8046875,310.6640625,309.35546875,308.3828125,305.765625,304.00390625,301.95703125,299.62109375,297.828125,298.8359375,305.6484375,317.4453125,329.27734375,343.66015625,361.59765625,380.6875,395.125,401.2265625,394.5703125,373.8515625,343.390625,315.92578125,301.1796875,299.859375,304.84375,308.25390625,308.21875,306.59375,306.5703125,307.1328125,307.71875,307.78125,307.234375,306.37109375,306.890625,306.4765625,306.56640625,306.4140625,305.4296875,305.24609375,305.0703125,306.41015625,306.703125,306.87890625,306.51171875,306.1953125,306.3828125,306.9140625,307.3359375,307.19921875,306.87890625,306.0078125,305.8359375,306.49609375,307.2265625,307.21484375,307.15234375,306.5546875,306.234375,306.609375,306.2109375,306.46875,305.63671875,305.796875,305.98046875,305.87890625,307.109375,306.54296875,306.36328125,305.83203125,306.2734375,307.4140625,307.22265625,306.71875,306.921875,306.24609375,306.75,306.67578125,307.80078125,307.2578125,307.98046875,306.6875,306.84375,307.15625,307.390625,307.23828125,306.8515625,306.00390625,306.09375,306.296875,307.20703125,306.6484375,306.5625,305.37109375,305.72265625,306.19921875,306.7109375,306.31640625,305.66796875,305.4609375,305.44140625,306.24609375,306.90234375,306.875,306.83203125,306.48046875,306.96484375,307.05078125,307.640625,307.453125,307.46875,307.14453125,307.35546875,307.88671875,309.5546875,310.19140625,310.43359375,310.83203125,311.90625,312.73828125,313.46484375,313.296875,313.7734375,313.8125,314.91796875,315.3515625,316.3046875,316.17578125,315.953125,316.0546875,316.0859375,316.921875,316.8046875,316.859375,316.5078125,315.96484375,316.08984375,316.328125,316.46875,316.73828125,316.50390625,316.24609375,316.38671875,316.16796875,316.6875,315.9765625,314.90625,314.78125,315.7265625,316.109375,316.49609375,316.171875,315.90625,315.31640625,315.6796875,316.48828125,316.53125,315.55078125,315.69921875,314.92578125,314.96484375,315.046875,315.1328125,314.45703125,314.50390625,313.42578125,314.08203125,314.5703125,314.62109375,313.85546875,312.81640625,312.0625,312.171875,312.96484375,312.7109375,312.9453125,312.83203125,311.91796875,312.45703125,312.18359375,313.3515625,313.23046875,312.8203125,312.1015625,312.9140625,313.625,313.9453125,313.421875,312.48828125,312.515625,312.0078125,313.26171875,313.4296875,313.66015625,313.05859375,312.66796875,313.56640625,313.7890625,314.2265625,313.9296875,313.14453125,312.6953125,313.28515625,314.984375,315.71484375,316.1796875,315.6171875,315.7734375,316.5078125,318.00390625,318.6328125,319.0546875,319.52734375,319.65625,320.73828125,321.15234375,322.6171875,322.6015625,322.95703125,321.62109375,320.6484375,320.5390625,320.82421875,321.265625,320.81640625,320.44921875,320.3046875,320.81640625,322.95703125,323.71484375,323.296875,320.4765625,319.26171875,318.1171875,318.12109375,317.3046875,316.15625,314.57421875,314.453125,314.16015625,314.26171875,313.1953125,312.96875,312.8203125,312.4140625,312.8203125,313.3203125,313.3125,312.5546875,311.52734375,311.2734375,311.4921875,312.1171875,311.7578125,310.94140625,310.3984375,311.01953125,310.984375,312.0703125,312.16015625,312.3359375,311.26953125,310.7734375,309.078125,307.0546875,304.7109375,301.9140625,298.82421875,297.8203125,301.8046875,309.43359375,317.8203125,324.79296875,331.7265625,342.421875,356.42578125,373.2265625,387.12890625,396.6015625,401.125,398.59375,384.609375,359.75390625,332.04296875,311.015625,302.05859375,303.515625,308.3203125,311.55078125,311.12109375,309.5234375,308.7265625,308.87109375,309.03515625,309.32421875,308.578125,308.20703125,307.765625,308.234375,308.59375,309.23828125,308.83984375,308.28125,307.30078125,307.34765625,308.09765625,309.6171875,309.48828125,309.2421875,308.984375,309.2421875,309.359375,309.6328125,309.40234375,308.64453125,307.421875,307.34375,308.06640625,308.875,308.578125,307.19921875,306.80078125,307.16015625,308.15234375,308.15234375,307.890625,307.71875,306.95703125,306.33984375,307.3515625,306.85546875,306.9609375,307.20703125,307.3515625,307.48828125,308.16796875,308.56640625,308.265625,307.87109375,307.1953125,307.36328125,307.87109375,308.0546875,307.8671875,307.0,307.04296875,307.265625,307.43359375,307.703125,307.4609375,306.453125,306.4296875,305.8359375,306.125,306.58203125,306.49609375,306.2734375,305.6171875,305.984375,305.8046875,305.875,306.28515625,306.3984375,306.25390625,306.64453125,306.44921875,306.01953125,306.07421875,305.55078125,305.80078125,307.0,307.83984375,308.40234375,308.40625,308.37890625,308.6328125,309.4453125,311.1484375,311.82421875,311.80078125,312.13671875,312.17578125,313.06640625,313.93359375,313.94921875,313.96484375,313.83984375,312.8671875,313.421875,314.15625,315.53515625,315.828125,315.87890625,315.04296875,314.640625,314.48046875,315.00390625,315.1484375,314.71484375,314.0546875,314.359375,315.1953125,316.24609375,316.23046875,315.20703125,314.37890625,314.13671875,314.171875,313.97265625,314.14453125,312.90234375,312.203125,312.8671875,313.109375,314.8515625,314.30859375,313.36328125,312.9140625,313.04296875,313.2421875,313.52734375,313.2734375,313.015625,312.65625,312.32421875,312.515625,312.55078125,311.859375,310.671875,310.0703125,310.43359375,311.36328125,311.375,311.62109375,311.80859375,310.4375,310.14453125,309.85546875,310.00390625,310.7890625,310.65625,310.4765625,310.5703125,311.09375,311.2890625,311.34375,310.28125,309.3125,309.5,310.578125,310.71484375,310.765625,310.3515625,310.07421875,310.515625,311.08984375,311.5546875,311.3984375,310.5703125,310.59765625,310.3125,310.125,311.2578125,310.9921875,310.87890625,310.12109375,310.48828125,311.3359375,312.3671875,312.6015625,312.88671875,313.375,313.78125,315.40625,315.96875,316.7421875,316.01171875,315.88671875,316.5,317.2265625,318.7265625,318.7421875,318.33203125,317.578125,317.8984375,317.7578125,318.33203125,317.33984375,316.7109375,316.1640625,317.60546875,317.96875,318.46875,317.8671875,317.77734375,318.46875,319.41796875,320.2109375,319.61328125,317.6953125,316.15234375,314.48046875,313.73046875,312.515625,312.05078125,311.8828125,310.67578125,309.93359375,309.6015625,309.88671875,310.015625,309.77734375,308.9375,308.23828125,308.28515625,308.33203125,309.17578125,309.3046875,309.6640625,308.91015625,308.7734375,308.64453125,309.4609375,309.390625,309.1875,308.51953125,308.63671875,309.16015625,309.8515625,310.015625,309.53515625,308.62890625,307.640625,305.91015625,304.53515625,302.140625,300.42578125,297.6796875,295.40625,295.53515625,299.6015625,308.03125,317.4296875,328.76953125,343.203125,360.1015625,376.72265625,389.03125,393.390625,386.77734375,367.765625,341.5546875,317.9296875,303.2109375,298.2421875,298.5234375,301.2421875,304.1484375,305.1015625,304.55859375,304.97265625,304.00390625,304.7734375,304.70703125,304.8828125,304.60546875,303.515625,303.26953125,303.6328125,303.83984375,304.93359375,304.828125,304.6796875,305.0078125,304.58203125,305.10546875,304.83203125,305.13671875,304.12890625,303.453125,303.91796875,304.58984375,304.64453125,304.578125,303.9609375,303.3984375,303.4765625,303.98046875,303.9375,303.9375,303.078125,302.19140625,302.92578125,302.58203125,303.46875,303.44921875,303.0859375,302.44921875,302.98046875,303.625,304.6640625,304.328125,303.76953125,303.2734375,303.4375,304.01953125,304.18359375,303.734375,303.3203125,302.68359375,302.84765625,302.84765625,303.671875,303.31640625,303.31640625,302.421875,303.04296875,303.61328125,304.15234375,303.9765625,303.63671875,302.28125,302.0,303.0703125,303.4609375,303.43359375,302.4765625,302.25390625,301.9453125,302.7109375,302.33203125,301.6015625,300.79296875,300.34375,300.5546875,301.61328125,301.1328125,300.85546875,300.328125,299.79296875,299.70703125,300.12890625,301.27734375,301.08984375,301.3359375,301.453125,303.09375,304.72265625,306.1953125,306.2265625,307.203125,307.30078125,308.5,309.89453125,311.30078125,311.65625,311.93359375,311.39453125,312.09375,312.41796875,313.6328125,314.0859375,314.00390625,313.91015625,314.0859375,314.43359375,315.2890625,315.45703125,315.80078125,315.0390625,315.41015625,316.140625,316.44921875,315.54296875,314.9765625,314.7578125,314.8359375,315.62109375,315.7578125,315.37890625,314.453125,314.19140625,313.88671875,314.6640625,314.78125,314.65625,313.7890625,313.8203125,314.046875,314.46484375,314.5390625,314.53515625,314.015625,313.66015625,313.27734375,313.48046875,314.02734375,313.44140625,313.58203125,312.45703125,313.3515625,313.91015625,314.5,313.8125,313.1015625,312.8671875,313.12109375,312.234375,312.2890625,312.14453125,311.78515625,311.42578125,311.25390625,312.01953125,312.97265625,312.74609375,312.18359375,311.1640625,311.72265625,312.0859375,312.82421875,312.65234375,312.12890625,311.69921875,311.8359375,312.41015625,312.58203125,312.37890625,312.76953125,312.58984375,313.15625,313.42578125,313.56640625,313.33203125,313.48828125,313.0078125,312.72265625,312.8125,313.359375,314.05078125,313.2109375,312.765625,314.0,314.88671875,315.546875,316.01171875,315.58203125,315.07421875,316.08984375,317.06640625,318.00390625,318.609375,318.19140625,318.14453125,318.77734375,320.234375,320.8984375,321.5703125,321.33984375,321.09765625,321.23046875,321.2578125,321.0859375,320.75390625,320.14453125,319.52734375,320.1171875,321.2421875,321.6328125,320.47265625,319.328125,319.46484375,320.6015625,322.48828125,324.15234375,323.5546875,321.40625,318.18359375,317.16796875,316.44140625,316.5234375,315.44921875,313.73046875,312.0078125,312.078125,312.38671875,312.64453125,312.87109375,312.6171875,311.625,312.09765625,312.359375,312.39453125,312.0703125,311.91015625,310.9140625,310.484375,310.50390625,310.85546875,311.25,311.046875,310.74609375,310.140625,311.015625,311.6796875,311.25,310.57421875,309.015625,308.25390625,306.51171875,304.953125,303.98828125,301.296875,298.8046875,298.7421875,302.296875,310.9140625,321.02734375,331.11328125,343.578125,360.5078125,378.14453125,394.01171875,403.60546875,406.8125,401.125,384.265625,358.44140625,332.13671875,311.8359375,301.91796875,300.46484375,303.73046875,306.80078125,309.05859375,309.3671875,308.1796875,307.3125,308.00390625,308.28125,308.7578125,308.6875,307.953125,307.55078125,307.3671875,307.1484375,308.1328125,307.79296875,307.1171875,306.28515625,307.07421875,307.8203125,307.890625,307.30078125,306.828125,306.4921875,306.9609375,306.546875,306.78125,307.45703125,306.69921875,306.35546875,306.046875,306.33984375,307.2109375,307.390625,307.4765625,307.16015625,306.8515625,307.2734375,307.61328125,307.7734375,308.015625,307.28125,307.66796875,307.640625,308.28515625,308.36328125,307.91796875,306.77734375,306.72265625,306.91796875,307.8671875,307.30078125,306.953125,306.4609375,306.6875,307.00390625,307.6015625,306.4765625,306.0078125,305.203125,305.91796875,306.30859375,307.00390625,306.58203125,306.01171875,306.04296875,306.8125,307.328125,308.47265625,307.89453125,307.62109375,306.8671875,306.5234375,307.1953125,307.84765625,307.3515625,306.9453125,305.453125,306.47265625,306.58984375,306.89453125,306.7890625,305.98828125,305.86328125,305.7421875,306.3046875,306.4296875,306.7421875,306.25,306.42578125,306.88671875,307.33203125,308.20703125,308.59375,308.74609375,308.98046875,310.00390625,311.0234375,312.08203125,313.265625,313.7734375,314.1875,314.44140625,315.5078125,316.015625,316.45703125,315.953125,315.6015625,315.96484375,316.33203125,316.0,316.62109375,316.16796875,315.74609375,316.49609375,316.3984375,317.0859375,316.5546875,316.515625,315.921875,315.84375,316.52734375,317.48046875,317.27734375,316.70703125,316.4296875,316.15625,316.67578125,316.73046875,317.07421875,316.09375,315.6484375,315.41796875,315.47265625,315.765625,316.54296875,315.49609375,314.83203125,313.6875,315.05078125,315.59765625,315.44140625,314.9765625,314.03125,315.1640625,314.6015625,315.6953125,315.9296875,314.93359375,314.90625,314.94140625,315.171875,315.22265625,315.15234375,314.41015625,313.76171875,313.5234375,314.01171875,314.43359375,313.80859375,313.125,312.36328125,312.75390625,313.34765625,313.5703125,312.8515625,312.375,311.453125,311.58203125,312.296875,312.5546875,312.9140625,312.37890625,312.0546875,312.41796875,312.77734375,313.44921875,313.54296875,313.5859375,313.05078125,312.6875,313.05859375,312.92578125,313.984375,314.1015625,314.02734375,314.65234375,315.75,316.63671875,317.34375,317.1640625,316.8984375,317.27734375,317.8671875,317.84375,318.06640625,318.515625,318.69921875,319.77734375,320.43359375,321.703125,321.671875,322.2109375,321.203125,321.5859375,321.2578125,321.86328125,321.16015625,321.06640625,320.9140625,321.7265625,321.4140625,322.40625,323.46875,323.640625,322.18359375,319.6875,318.28515625,317.21875,316.8828125,315.765625,315.04296875,313.80078125,313.33984375,313.4296875,313.2734375,313.0390625,312.90234375,312.62890625,313.36328125,313.48046875,313.37109375,312.50390625,311.77734375,312.08984375,312.1953125,312.57421875,312.0703125,312.234375,310.94921875,311.26171875,311.65625,311.6953125,311.203125,310.46484375,310.3046875,310.796875,309.6953125,308.24609375,305.71484375,304.1875,303.29296875,302.6953125,300.8515625,297.90625,295.609375,295.79296875,297.72265625,304.1171875,312.30078125,322.015625,333.21875,347.22265625,364.53125,382.15625,395.5625,401.71875,397.6875,381.5859375,354.86328125,328.109375,309.0546875,302.7734375,303.328125,306.671875,308.203125,309.2578125,309.56640625,309.4453125,309.6484375,309.12890625,307.58984375,307.66796875,308.56640625,309.2734375,308.70703125,308.4375,308.29296875,308.1484375,308.10546875,308.28515625,308.3671875,307.66796875,307.97265625,308.203125,308.41796875,308.67578125,308.42578125,308.421875,307.8671875,308.2734375,308.3125,308.93359375,308.75390625,308.51171875,308.1328125,308.0546875,308.55078125,308.9296875,308.8125,309.49609375,309.08984375,309.140625,309.7421875,309.9296875,309.8359375,309.1953125,308.77734375,308.19140625,308.58984375,309.13671875,309.37109375,308.41015625,308.12109375,307.96484375,308.328125,308.890625,308.5078125,307.96484375,306.48046875,306.91796875,307.4453125,308.5390625,308.71875,307.75,307.7265625,307.875,308.328125,309.16015625,308.80859375,308.30859375,307.5546875,307.1484375,307.8359375,308.0,307.63671875,307.453125,307.10546875,307.37109375,307.64453125,307.7421875,308.015625,307.7890625,306.77734375,306.75390625,307.16015625,308.4140625,308.453125,308.23046875,307.29296875,307.3671875,308.09765625,308.36328125,308.21484375,308.0703125,307.77734375,308.26953125,308.5859375,309.984375,310.5078125,310.73046875,310.9140625,311.9296875,313.46484375,314.8828125,315.44921875,315.2890625,315.1875,315.8828125,316.0859375,316.71484375,316.4921875,316.7578125,316.49609375,316.49609375,316.9453125,317.56640625,317.265625,317.68359375,316.65625,316.82421875,317.1875,317.40625,317.2421875,316.86328125,316.015625,316.6015625,317.41796875,317.7734375,318.08203125,317.53125,317.22265625,317.3359375,317.13671875,317.41015625,317.640625,317.49609375,316.7265625,316.23828125,316.58203125,316.234375,316.484375,316.390625,315.46875,315.00390625,315.515625,315.98828125,316.2109375,316.40625,315.41796875,315.015625,314.77734375,315.3203125,315.73046875,315.09375,314.6640625,314.4609375,314.75390625,314.84765625,314.8671875,314.83984375,314.34375,314.73828125,314.51171875,314.83984375,314.56640625,314.55078125,314.25390625,313.71484375,313.32421875,314.20703125,313.43359375,313.65625,312.69140625,312.640625,313.29296875,313.99609375,314.24609375,313.4921875,313.265625,313.15625,313.73828125,314.10546875,314.47265625,313.2734375,313.01171875,313.29296875,313.7734375,314.18359375,314.1953125,313.70703125,313.58984375,313.7578125,313.61328125,314.10546875,314.38671875,314.296875,314.49609375,314.46875,315.04296875,315.640625,316.31640625,316.21484375,316.19140625,316.60546875,317.4921875,319.00390625,319.58984375,319.51953125,318.640625,318.40625,319.08203125,320.07421875,320.86328125,321.75390625,321.41796875,321.8984375,322.61328125,322.3984375,322.390625,321.2109375,320.5390625,320.30078125,321.04296875,321.76953125,321.98828125,321.234375,320.515625,321.296875,323.265625,324.3671875,324.15625,321.68359375,318.81640625,317.29296875,316.984375,317.33984375,316.4453125,314.73046875,313.7109375,312.95703125,312.9296875,312.890625,312.40625,312.55078125,312.01953125,311.75,311.84765625,312.390625,312.58203125,312.1328125,311.96484375,311.88671875,311.94921875,312.453125,312.04296875,312.26953125,311.69921875,311.41796875,311.53125,311.5703125,311.6484375,310.37109375,308.5859375,307.5625,306.57421875,305.7421875,305.24609375,304.359375,303.984375,303.578125,301.0390625,297.98828125,295.79296875,297.09765625,302.5546875,311.77734375,322.0859375,334.5859375,351.0703125,369.20703125,383.92578125,392.1953125,390.59765625,375.8671875,349.48046875,323.40234375,304.94921875,299.43359375,302.11328125,306.65625,308.64453125,307.63671875,306.16015625,306.2265625,307.09375,307.9453125,308.3515625,308.390625,307.39453125,306.6640625,306.89453125,307.26953125,307.21875,307.13671875,307.0546875,307.09765625,307.85546875,308.5078125,308.2421875,307.39453125,307.0859375,307.0234375,307.3671875,306.9140625,306.57421875,306.171875,306.12109375,305.8671875,306.578125,307.6953125,307.55859375,307.05078125,306.2421875,306.6015625,307.21484375,308.69140625,307.98828125,307.66015625,306.33203125,306.91015625,307.23046875,307.4765625,307.703125,306.44921875,305.98828125,306.21484375,306.640625,306.828125,306.2890625,305.89453125,305.27734375,305.6796875,306.484375,307.265625,307.453125,307.1953125,306.59765625,306.4609375,306.91015625,307.56640625,307.5078125,307.2265625,306.828125,307.26171875,307.37109375,307.97265625,308.02734375,307.59765625,307.20703125,307.80859375,307.9921875,307.6484375,307.953125,307.2109375,306.703125,306.6796875,306.4453125,306.51171875,305.9375,305.078125,304.59765625,304.46484375,305.25390625,305.19140625,305.7421875,305.48828125,305.03125,304.60546875,305.2265625,306.1640625,306.4765625,306.515625,306.42578125,307.1875,308.12109375,309.65234375,310.2265625,310.40234375,310.33203125,310.5546875,311.6328125,312.39453125,312.88671875,312.42578125,312.30078125,312.7109375,314.375,314.04296875,314.0625,313.5390625,313.796875,313.86328125,314.6484375,315.5390625,315.57421875,314.828125,314.53515625,314.69140625,315.09375,315.9375,315.84375,315.390625,314.42578125,314.4453125,314.44921875,315.0625,314.640625,314.08984375,313.6171875,313.5234375,314.546875,315.28125,315.29296875,314.4765625,313.7109375,313.01953125,313.4140625,313.73828125,313.66015625,313.59765625,312.765625,313.13671875,313.38671875,313.8359375,313.89453125,313.8828125,313.37109375,312.51953125,312.7734375,312.3046875,312.609375,311.78125,311.42578125,312.00390625,312.43359375,312.40234375,311.8046875,310.859375,310.15625,310.48046875,311.078125,311.31640625,311.33984375,310.77734375,310.4296875,310.3046875,310.8046875,311.1953125,311.57421875,310.6171875,310.16015625,310.67578125,311.64453125,311.9765625,311.25390625,310.5,309.78125,310.4296875,310.56640625,311.72265625,311.1171875,310.84765625,309.09765625,309.28125,309.953125,310.57421875,310.97265625,310.703125,310.16796875,310.76953125,311.37109375,311.65625,311.66796875,311.59375,311.109375,311.26171875,311.73046875,312.1796875,312.30078125,311.5234375,310.8359375,311.3671875,311.5234375,312.703125,312.8359375,312.4765625,312.30078125,312.19921875,313.01953125,313.94140625,314.70703125,314.87109375,314.375,314.47265625,315.453125,316.26953125,317.0234375,317.6015625,317.48828125,317.73828125,318.203125,318.375,317.94921875,317.78125,316.9453125,317.09375,317.03125,316.875,317.5625,317.1640625,316.4609375,316.15234375,316.5546875,317.765625,319.0625,318.12109375,316.16796875,315.48828125,314.32421875,314.31640625,313.140625,311.71484375,310.5625,310.26953125,309.77734375,309.4921875,309.0859375,308.7734375,308.96875,308.99609375,308.80859375,309.484375,309.34375,308.69140625,307.421875,307.33203125,307.5703125,308.26953125,309.38671875,308.63671875,308.546875,307.53515625,308.20703125,308.29296875,308.20703125,307.83984375,307.46875,308.16796875,308.8203125,309.3203125,309.1328125,307.8046875,305.73046875,304.17578125,301.54296875,301.81640625,299.453125,297.01953125,295.609375,298.53125,305.69140625,314.875,325.8671875,339.32421875,355.22265625,372.515625,384.51953125,389.0234375,382.96875,365.12890625,340.5546875,318.28515625,303.62109375,298.90234375,299.109375,300.8984375,302.0859375,303.53125,304.55859375,304.87890625,304.89453125,304.05859375,303.6640625,303.75390625,304.578125,305.06640625,305.20703125,304.91796875,304.08984375,303.65234375,303.75,304.58203125,304.31640625,304.29296875,303.3828125,303.015625,304.11328125,303.8984375,304.53125,303.92578125,303.66796875,304.03515625,304.625,305.6015625,305.546875,304.80078125,303.78125,304.76953125,305.51171875,305.40234375,304.99609375,304.5234375,303.7578125,303.84765625,304.28125,304.75,304.875,304.09375,303.15625,303.3828125,303.9453125,304.46875,304.296875,303.70703125,303.046875,303.140625,302.9140625,303.69921875,303.796875,303.67578125,302.5625,303.03515625,303.578125,304.16015625,303.48046875,303.5234375,303.44921875,303.57421875,303.8125,304.0859375,303.94140625,303.91015625,303.0859375,302.94921875,303.08984375,303.70703125,303.1171875,302.2421875,301.40625,301.74609375,302.12109375,301.546875,301.609375,301.25,300.32421875,300.0625,300.390625,300.35546875,300.40234375,299.53515625,299.13671875,299.234375,299.80859375,300.7421875,300.453125,300.40625,299.75390625,300.1953125,301.25,302.328125,302.36328125,301.8203125,301.84765625,301.859375,302.96484375,304.40625,305.32421875,305.5546875,306.25390625,307.37109375,308.73828125,309.3046875,309.65625,310.41015625,310.6015625,311.21875,311.75,312.6796875,312.65234375,312.6640625,312.05078125,312.46484375,313.015625,313.9921875,313.9453125,313.19921875,313.1796875,313.63671875,314.12890625,314.7421875,314.56640625,314.57421875,313.75,313.3515625,314.1875,314.9296875,315.23828125,314.4609375,313.7265625,312.76953125,313.35546875,313.94921875,313.9921875,313.19921875,312.41796875,312.4765625,313.0390625,313.234375,312.77734375,312.609375,312.28125,312.53515625,313.0546875,313.96484375,313.6953125,313.15234375,312.63671875,312.55078125,312.83203125,313.3984375,313.0390625,313.23828125,312.66015625,311.63671875,312.0859375,312.36328125,312.6484375,312.375,311.75390625,312.375,312.7421875,312.71484375,312.6328125,312.29296875,312.03125,310.9453125,311.6953125,312.28125,312.6484375,312.14453125,311.6953125,312.08203125,313.21484375,312.7890625,312.73046875,311.75,312.15625,311.9296875,313.00390625,312.89453125,313.25390625,312.44140625,312.0703125,312.1484375,312.22265625,312.80078125,312.87109375,312.9453125,312.66015625,312.84375,313.8671875,314.40234375,314.3515625,313.98046875,313.8515625,313.859375,314.88671875,315.59765625,315.8671875,315.60546875,314.73828125,315.30078125,316.125,317.23046875,317.953125,317.58203125,317.2421875,317.5703125,319.19140625,319.640625,320.32421875,320.27734375,319.85546875,320.48828125,321.05078125,321.8359375,321.21875,320.05859375,318.93359375,319.9375,319.94921875,320.6640625,320.6015625,321.171875,320.77734375,321.734375,323.328125,324.359375,323.140625,320.21875,317.87890625,317.0703125,317.2890625,317.1875,316.15625,315.1015625,313.8046875,313.32421875,312.93359375,312.66796875,312.84765625,312.8671875,312.43359375,312.5546875,312.515625,312.859375,312.3984375,311.8125,311.60546875,311.3203125,312.078125,312.19140625,312.57421875,312.0703125,311.234375,310.98046875,311.40234375,312.09765625,311.78515625,309.9375,308.671875,306.52734375,305.7109375,304.1484375,302.421875,300.203125,300.9140625,305.30859375,315.11328125,326.0390625,338.32421875,353.2109375,370.61328125,387.34375,397.98046875,398.4140625,384.9921875,359.32421875,329.44140625,308.8671875,301.12109375,303.46875,307.69921875,309.6171875,309.58984375,308.6015625,308.38671875,309.3359375,309.62109375,309.28125,308.55859375,307.85546875,308.74609375,309.68359375,309.546875,309.7109375,308.8359375,308.78125,309.16015625,309.5625,309.46875,309.140625,308.51171875,308.40234375,309.10546875,309.55859375,309.48828125,309.140625,307.7578125,308.48828125,308.53515625,309.30859375,309.33984375,308.625,308.44140625,308.3125,308.640625,308.95703125,309.78125,309.46484375,308.95703125,309.1953125,309.76171875,310.28125,310.609375,309.87890625,309.24609375,309.00390625,309.73828125,309.71484375,309.5234375,308.59375,307.65234375,308.16796875,308.77734375,309.33203125,309.140625,308.796875,307.9453125,308.52734375,308.84765625,309.83984375,309.73046875,309.74609375,309.40234375,309.3671875,309.59375,309.66015625,309.453125,309.12109375,308.7734375,308.7109375,308.4453125,308.91015625,308.7265625,308.5234375,308.13671875,307.05078125,307.58203125,307.8515625,308.62109375,307.96484375,307.3203125,307.30859375,308.10546875,308.37890625,308.7109375,308.67578125,308.46875,309.16015625,310.0234375,311.08984375,312.0625,312.25390625,312.0625,313.1953125,314.1796875,315.33984375,315.5078125,316.02734375,316.08984375,316.1796875,316.890625,317.7890625,317.83984375,317.83984375,317.2109375,317.6328125,318.18359375,319.16015625,319.11328125,319.11328125,318.0078125,318.31640625,319.03125,319.609375,319.50390625,319.38671875,318.578125,318.45703125,318.5859375,318.703125,318.7578125,317.96484375,317.55078125,317.3828125,317.91015625,318.3046875,318.42578125,317.6640625,316.97265625,316.75,316.7421875,317.30078125,317.1484375,316.9140625,315.77734375,316.03515625,316.51953125,317.30078125,316.953125,316.84375,315.97265625,316.3671875,316.37109375,316.7578125,316.77734375,316.04296875,314.87109375,314.77734375,314.9921875,315.4453125,315.51171875,315.0,314.375,314.1875,314.65625,315.3203125,315.5078125,314.53125,314.0078125,314.046875,314.66796875,315.10546875,314.9453125,314.875,314.5625,315.0390625,314.8671875,315.41015625,314.93359375,315.16796875,314.11328125,313.71484375,314.2421875,314.4453125,315.36328125,314.43359375,314.3203125,314.36328125,314.99609375,315.6796875,316.8203125,316.56640625,316.578125,317.15234375,317.609375,319.0703125,319.29296875,319.4609375,319.11328125,319.7890625,320.69140625,321.75,322.4609375,322.60546875,322.62890625,322.5859375,323.33984375,323.265625,322.828125,321.8515625,320.62109375,320.85546875,321.62109375,322.20703125,323.3359375,323.7421875,324.1953125,324.21484375,322.96484375,321.4375,319.20703125,318.48828125,316.7890625,316.82421875,316.40625,316.5,316.4609375,315.69921875,314.30078125,314.65234375,314.9296875,315.2421875,315.2109375,314.640625,312.8046875,313.6015625,313.87890625,314.3125,313.5,312.9921875,312.35546875,312.54296875,313.0390625,313.71875,313.890625,313.16015625,312.44921875,311.9765625,312.671875,313.09765625,312.78515625,311.390625,308.99609375,306.421875,305.2890625,304.04296875,300.6875,298.34375,298.7890625,303.3984375,310.46484375,318.484375,324.8359375,330.03125,337.26171875,349.59375,366.421875,382.61328125,395.1796875,400.96875,397.75390625,382.640625,357.66796875,331.28515625,311.15625,302.9609375,302.47265625,307.12109375,310.05859375,311.359375,310.6015625,309.84765625,309.140625,309.28515625,309.80859375,310.24609375,310.609375,310.140625,309.796875,309.3984375,310.1015625,310.76171875,310.0078125,310.046875,308.87109375,308.5546875,309.09375,309.26953125,309.94140625,309.46484375,308.66796875,308.90234375,309.67578125,310.0078125,310.33203125,310.03515625,308.02734375,308.30078125,308.3984375,310.0234375,310.296875,310.40625,310.30859375,310.55859375,310.890625,311.4765625,311.59765625,310.90625,310.4453125,310.515625,310.86328125,310.7421875,310.1875,309.50390625,309.09375,309.265625,309.82421875,310.24609375,310.10546875,309.78515625,308.9140625,308.7421875,309.40234375,310.1328125,310.12109375,309.30859375,309.046875,308.9609375,309.546875,309.90625,310.51953125,309.87890625,309.26953125,309.74609375,309.1484375,309.6796875,309.578125,308.703125,308.2265625,308.48046875,309.40625,309.9453125,309.796875,308.69921875,308.17578125,308.24609375,308.109375,309.125,309.25390625,308.9375,308.5,309.3359375,310.08984375,311.1484375,311.03125,311.52734375,312.05078125,312.515625,313.8671875,314.8671875,315.46875,315.53515625,315.484375,315.48046875,316.24609375,316.66015625,317.58203125,317.21484375,316.4453125,316.14453125,317.05859375,317.625,317.83984375,318.01171875,317.28515625,316.9375,317.984375,318.02734375,318.2265625,317.80078125,316.98828125,317.578125,317.6328125,317.82421875,318.265625,317.58984375,317.03125,316.50390625,316.921875,317.56640625,317.01953125,316.62890625,315.39453125,314.96484375,315.796875,316.546875,316.3515625,316.21484375,315.81640625,316.08203125,316.11328125,316.90625,316.55078125,316.30859375,315.359375,315.4375,315.66796875,315.578125,316.29296875,315.37109375,314.30859375,313.3671875,314.1640625,314.93359375,314.74609375,314.3515625,313.14453125,312.70703125,312.78125,313.12109375,314.00390625,313.16796875,313.0390625,312.8125,313.3984375,313.79296875,314.15234375,313.94921875,313.66015625,314.296875,314.19140625,314.54296875,313.984375,313.91796875,313.33984375,313.26953125,313.9453125,314.39453125,315.08203125,314.1484375,313.4765625,313.67578125,314.29296875,315.55859375,315.79296875,315.13671875,314.640625,315.45703125,316.9765625,318.19921875,318.453125,318.68359375,318.6796875,319.2421875,320.0859375,320.5703125,320.70703125,320.41796875,320.83984375,321.67578125,322.6953125,323.18359375,323.52734375,322.3046875,321.5546875,320.7265625,320.65234375,320.89453125,320.96875,321.25390625,320.78125,321.4609375,322.52734375,324.4140625,325.59765625,324.8828125,322.8984375,321.28515625,319.64453125,319.65234375,319.34375,318.41796875,317.140625,315.75390625,315.48046875,314.9296875,314.15234375,312.6484375,311.78125,311.80078125,312.39453125,312.59375,313.12890625,312.1796875,312.30078125,311.15625,311.55859375,312.01171875,311.76953125,311.71484375,311.0546875,311.0,311.19140625,311.7734375,312.18359375,311.5390625,311.11328125,310.41015625,309.83984375,309.19140625,306.52734375,304.94921875,303.12109375,302.16796875,299.92578125,296.93359375,295.3828125,295.99609375,299.84765625,306.58984375,315.02734375,325.09375,336.87890625,350.8671875,366.90234375,381.1484375,390.2265625,389.01171875,376.8359375,353.88671875,327.38671875,308.6328125,301.4765625,302.5546875,306.23828125,308.65625,308.12109375,307.63671875,307.80859375,308.50390625,308.75390625,308.0,307.2734375,307.30859375,308.1171875,307.875,308.34765625,307.7890625,307.8125,307.4609375,307.67578125,308.2109375,308.125,308.12890625,307.03125,307.5859375,308.35546875,308.98046875,308.6015625,307.421875,306.85546875,306.20703125,306.91015625,307.01171875,307.4140625,307.65625,306.9765625,307.8515625,307.921875,308.65234375,308.6875,308.73046875,308.4609375,307.65234375,308.203125,308.265625,308.4609375,308.3984375,307.3671875,307.421875,306.8125,307.33203125,307.60546875,307.01171875,306.109375,306.02734375,306.5390625,307.03515625,306.6328125,306.4921875,305.89453125,305.59375,305.96484375,306.56640625,307.29296875,307.4296875,306.94921875,306.80078125,307.22265625,307.88671875,307.5859375,306.74609375,306.1953125,306.32421875,305.6796875,305.82421875,305.71484375,305.32421875,304.21484375,304.38671875,304.63671875,305.3828125,305.734375,305.55859375,304.765625,305.0390625,305.80078125,306.37890625,307.26171875,307.8671875,308.08203125,308.359375,308.8515625,309.76171875,310.5,310.421875,310.37109375,310.2890625,311.07421875,311.75,311.96875,311.4765625,311.5625,312.296875,312.80859375,313.71875,314.08203125,313.73046875,313.36328125,312.94140625,313.90234375,314.62109375,314.90625,314.63671875,313.765625,314.08203125,315.1015625,315.22265625,315.5390625,313.9296875,313.41796875,312.87890625,313.90625,314.6328125,314.3984375,313.52734375,312.71875,312.55078125,312.80859375,312.90625,312.93359375,311.65234375,311.6328125,311.98828125,313.25390625,313.55078125,313.87890625,312.83984375,311.91796875,311.33984375,311.74609375,312.40625,312.35546875,311.5703125,310.8125,309.859375,310.44921875,311.04296875,311.0859375,310.79296875,309.87109375,309.95703125,310.4296875,310.640625,310.953125,310.1875,309.81640625,309.6328125,310.65625,310.6640625,310.7578125,310.3671875,309.82421875,309.95703125,309.94140625,310.02734375,310.51171875,310.85546875,310.5,310.1328125,309.9609375,310.48046875,310.62890625,309.9453125,309.2265625,309.4921875,309.60546875,310.74609375,310.65234375,310.2421875,309.265625,309.7734375,310.140625,311.390625,311.3203125,310.87890625,310.15625,309.4765625,310.359375,311.29296875,312.16015625,312.296875,311.52734375,311.8359375,312.5859375,313.40625,313.84765625,314.3828125,314.7421875,314.87109375,315.1171875,316.140625,316.90625,316.66015625,316.28125,316.3359375,317.41796875,317.97265625,318.1484375,317.08203125,315.8359375,315.4765625,316.66015625,317.7890625,317.8984375,317.32421875,317.58984375,318.91796875,319.83984375,319.09765625,317.06640625,314.96875,312.4765625,311.234375,310.12890625,309.76171875,309.4140625,308.859375,307.48046875,307.89453125,308.90234375,309.8671875,309.578125,309.15625,307.98046875,307.546875,307.61328125,308.453125,308.9453125,308.33203125,307.62890625,307.62109375,307.68359375,308.0390625,308.30078125,308.62890625,307.71484375,307.51171875,307.32421875,308.171875,308.10546875,308.14453125,306.53515625,305.47265625,303.3359375,302.46484375,301.4140625,300.05859375,297.22265625,294.01171875,292.6796875,295.91015625,302.58984375,310.94921875,319.93359375,333.17578125,349.421875,366.53125,379.74609375,386.34765625,381.48828125,363.74609375,339.21875,317.66015625,303.5234375,297.71484375,297.34375,300.09765625,302.65625,304.3203125,304.0546875,303.94140625,303.30078125,303.25390625,303.19140625,303.71875,303.8359375,302.91015625,302.39453125,302.91796875,304.15234375,304.78515625,305.15234375,304.63671875,303.55859375,303.50390625,303.68359375,304.13671875,303.71484375,302.83984375,302.578125,302.5078125,303.33984375,303.75390625,303.91015625,303.6328125,303.046875,302.41015625,303.24609375,303.43359375,303.3984375,302.7421875,302.3125,301.98046875,302.4375,303.0234375,303.23046875,302.76953125,302.09765625,302.16015625,302.4453125,303.59375,304.0703125,303.5,303.0390625,303.078125,303.93359375,304.4296875,304.8125,304.07421875,302.9296875,302.83203125,302.7890625,303.19140625,303.46875,303.03125,302.203125,302.18359375,303.1640625,303.01171875,303.0390625,302.8359375,302.62890625,302.11328125,302.69140625,303.04296875,303.53125,302.5546875,302.07421875,301.60546875,301.609375,301.60546875,301.10546875,300.5,299.5546875,299.60546875,299.34765625,300.6484375,300.35546875,300.20703125,299.71484375,299.890625,300.46875,301.12890625,301.5390625,301.875,301.921875,302.69140625,303.83984375,304.93359375,305.9453125,306.12109375,306.92578125,307.53125,309.01171875,309.8125,310.5625,310.890625,310.22265625,310.32421875,311.234375,312.06640625,312.33203125,311.79296875,311.62890625,312.3203125,312.7890625,313.46875,313.53125,313.578125,313.05078125,313.1875,313.41796875,314.3125,314.0,313.96875,312.3203125,312.5390625,312.6796875,313.69140625,313.87109375,313.17578125,312.453125,312.21875,312.22265625,313.03125,312.6796875,312.43359375,312.234375,312.7265625,313.38671875,313.8203125,313.6484375,313.33203125,312.46875,312.54296875,312.7578125,312.671875,312.63671875,312.05078125,311.97265625,311.65234375,311.88671875,312.41015625,312.3203125,311.828125,311.37109375,311.0078125,311.48046875,311.5703125,311.4140625,311.5625,311.0625,311.03125,311.1796875,311.76953125,312.6875,312.64453125,312.16015625,311.94140625,312.3828125,312.5625,313.390625,313.23828125,312.5546875,312.046875,313.125,312.94921875,312.578125,311.74609375,311.578125,311.34375,311.82421875,311.6328125,312.1796875,311.45703125,311.1328125,310.92578125,311.19140625,311.54296875,312.125,312.2421875,312.05078125,311.203125,312.4921875,312.984375,313.859375,313.8671875,313.6328125,313.82421875,314.5859375,315.56640625,316.08203125,316.17578125,316.140625,316.125,316.63671875,317.75,318.296875,318.46484375,318.40625,318.12890625,319.09375,319.5234375,320.01171875,319.26953125,318.34765625,319.05859375,319.48046875,320.28515625,320.328125,320.09765625,320.77734375,321.40234375,321.4140625,319.87109375,317.43359375,315.7890625,314.90234375,314.08203125,313.671875,313.5078125,312.78515625,311.15625,310.6875,310.0078125,310.8125,311.1484375,311.08203125,310.515625,309.8203125,309.91796875,310.703125,310.19921875,310.87890625,310.3359375,310.16796875,309.49609375,310.10546875,310.48828125,310.95703125,309.9765625,309.50390625,309.53125,309.640625,309.97265625,309.48046875,308.65625,307.1484375,306.54296875,304.37109375,303.01171875,301.48828125,299.51953125,296.1015625,294.47265625,295.7265625,301.2890625,309.0,318.953125,327.96484375,341.640625,357.5234375,374.1171875,386.953125,392.921875,389.2109375,374.9453125,351.62109375,327.78515625,308.74609375,300.06640625,299.05859375,301.98828125,305.4140625,306.41796875,306.3515625,306.3671875,305.37890625,305.76953125,306.18359375,306.453125,306.015625,305.5703125,304.69140625,305.0546875,305.31640625,306.26171875,306.1796875,305.19921875,305.12890625,304.5390625,305.3359375,306.15234375,306.453125,306.0234375,305.8203125,305.24609375,305.95703125,306.2890625,306.24609375,306.42578125,305.640625,305.3046875,306.1171875,305.8515625,305.69921875,305.453125,305.43359375,305.5,305.98828125,307.08203125,306.640625,306.59375,305.61328125,305.51953125,305.9375,306.33984375,306.48828125,306.21875,305.87890625,305.046875,305.12109375,306.078125,306.40625,305.55078125,304.96484375,304.9921875,305.6328125,305.81640625,305.84375,305.7890625,304.796875,304.83984375,305.2265625,305.97265625,306.15625,306.15625,305.609375,306.01171875,306.30078125,306.98046875,307.58984375,306.98828125,305.8671875,305.7265625,305.94140625,306.40625,306.21875,305.1484375,304.37890625,304.38671875,305.4609375,306.02734375,305.703125,305.0234375,304.0546875,303.8828125,304.06640625,304.9296875,304.38671875,304.80859375,303.97265625,304.45703125,304.92578125,305.40625,305.76953125,306.29296875,305.92578125,306.38671875,306.86328125,307.84765625,308.56640625,308.7265625,308.4921875,308.89453125,310.71875,311.96484375,312.37109375,312.0625,312.66796875,312.828125,313.73828125,314.0703125,314.48046875,314.53125,314.53125,314.515625,314.76953125,315.078125,315.671875,315.296875,314.4921875,314.703125,314.734375,314.90625,315.10546875,314.8828125,314.640625,314.26953125,314.4375,314.98828125,314.91015625,314.66015625,313.7578125,313.578125,313.99609375,314.421875,313.8125,313.37109375,312.91796875,312.91015625,313.65625,314.0703125,313.75,313.859375,313.04296875,313.23828125,313.66015625,314.35546875,314.296875,314.00390625,312.60546875,312.578125,312.46484375,313.3671875,312.2734375,312.5859375,311.4296875,311.65625,312.53515625,312.09375,312.3515625,311.9140625,311.2109375,310.77734375,311.09375,311.23828125,311.35546875,311.04296875,309.4765625,309.875,310.5625,310.9921875,311.81640625,311.35546875,310.8828125,310.8984375,310.64453125,311.453125,311.296875,310.6171875,310.359375,310.2421875,310.8359375,310.703125,310.703125,310.3671875,309.5859375,310.3984375,310.7578125,311.80078125,311.41796875,311.37109375,311.74609375,313.1484375,314.0234375,314.5234375,314.28125,314.71484375,314.28515625,315.28515625,315.375,316.3203125,316.4140625,316.2578125,316.15625,316.6015625,317.25,318.6953125,318.4921875,318.03515625,317.73046875,317.9375,318.078125,318.35546875,317.62109375,317.25390625,317.05859375,317.58203125,318.234375,318.65625,319.73828125,320.69921875,320.26171875,319.3828125,318.2578125,316.5546875,315.95703125,315.2109375,313.1953125,312.21484375,311.54296875,311.85546875,311.4453125,310.3515625,309.2734375,309.74609375,309.8984375,310.34375,310.30859375,309.82421875,308.97265625,308.96875,308.9453125,309.8203125,309.7109375,309.00390625,307.98828125,308.21484375,308.796875,310.0625,309.55078125,309.23046875,307.97265625,308.28125,309.28125,310.15625,310.140625,309.29296875,308.04296875,306.75,305.4453125,302.65625,301.0390625,298.75,295.9375,293.96875,295.15625,300.0859375,308.73828125,317.6015625,328.53515625,342.1015625,359.3515625,374.984375,387.46484375,393.4296875,392.3125,381.18359375,360.51953125,335.7265625,314.37890625,301.875,299.0546875,300.76953125,304.1328125,306.60546875,307.390625,306.26171875,305.87890625,305.421875,306.26171875,306.65234375,306.06640625,305.87890625,304.71875,304.5859375,305.19140625,304.92578125,305.45703125,304.890625,304.8984375,304.3046875,304.71875,305.01171875,304.9375,304.1328125,304.1328125,304.6015625,304.8359375,305.14453125,305.375,305.47265625,305.2578125,305.171875,305.62890625,305.76953125,305.85546875,305.05078125,304.12890625,304.10546875,304.609375,305.08984375,305.4453125,305.47265625,303.9921875,304.40234375,304.0703125,305.03515625,304.609375,304.58984375,303.96875,303.89453125,303.83203125,304.3671875,304.984375,303.9140625,303.67578125,303.91796875,304.15234375,304.76953125,304.7890625,304.86328125,304.83984375,305.078125,305.640625,306.2890625,305.95703125,304.62890625,304.22265625,304.5703125,305.3203125,305.015625,305.15234375,304.328125,303.765625,303.0234375,304.1328125,304.64453125,304.69140625,303.55078125,303.23828125,303.6328125,304.09765625,304.734375,304.30859375,304.2578125,303.14453125,302.96484375,303.5703125,304.56640625,304.6171875,304.58984375,303.71875,304.33984375,304.65234375
