476.5,713.75,831.375,889.6875,919.84375,934.921875,942.9609375,945.48046875,945.73828125,944.8671875,945.93359375,946.46484375,946.73046875,944.86328125,944.4296875,943.71484375,943.35546875,943.67578125,943.8359375,945.41796875,945.70703125,945.8515625,945.42578125,947.7109375,949.35546875,951.17578125,951.5859375,952.79296875,954.89453125,957.9453125,960.47265625,962.234375,963.6171875,963.80859375,964.90234375,967.94921875,970.97265625,971.984375,972.4921875,972.24609375,972.62109375,974.30859375,975.65234375,975.32421875,975.66015625,975.328125,975.6640625,977.33203125,978.6640625,977.33203125,976.6640625,975.33203125,975.6640625,978.33203125,979.6640625,979.33203125,978.1640625,977.58203125,976.2890625,977.14453125,977.5703125,978.28515625,977.140625,975.0703125,974.53515625,975.265625,975.6328125,974.81640625,973.40625,972.203125,971.1015625,971.05078125,972.5234375,971.76171875,970.37890625,970.1875,969.59375,970.796875,972.3984375,972.69921875,972.84765625,971.921875,971.4609375,971.23046875,972.11328125,971.0546875,969.02734375,967.01171875,967.00390625,968.0,968.5,968.75,967.375,966.1875,965.59375,965.796875,967.3984375,967.69921875,966.34765625,965.671875,964.8359375,964.91796875,964.95703125,965.4765625,965.23828125,965.1171875,966.05859375,966.52734375,967.76171875,968.87890625,968.4375,969.71875,970.859375,973.9296875,976.46484375,977.73046875,977.86328125,978.4296875,978.21484375,981.10546875,983.05078125,985.5234375,987.26171875,987.12890625,988.5625,991.28125,993.140625,992.0703125,990.53515625,988.265625,987.1328125,989.56640625,992.28125,993.140625,993.0703125,994.53515625,997.265625,999.6328125,996.81640625,991.40625,986.203125,982.1015625,977.55078125,976.7734375,973.38671875,970.19140625,968.09375,966.046875,966.0234375,966.01171875,966.50390625,966.25,965.625,963.3125,963.15625,964.078125,964.0390625,964.01953125,963.5078125,960.75390625,961.375,962.6875,963.84375,963.921875,962.4609375,961.23046875,962.11328125,962.5546875,962.27734375,962.13671875,959.56640625,956.78125,950.890625,945.4453125,939.72265625,932.859375,926.9296875,926.96484375,939.98046875,966.48828125,997.2421875,1035.62109375,1084.80859375,1138.90234375,1185.44921875,1214.72265625,1214.359375,1176.6796875,1107.83984375,1033.91796875,980.45703125,956.2265625,952.61328125,954.3046875,953.65234375,950.82421875,950.41015625,951.203125,952.1015625,952.55078125,951.7734375,949.88671875,950.44140625,949.71875,949.359375,949.1796875,947.08984375,946.04296875,945.51953125,947.7578125,948.87890625,949.4375,949.21875,948.609375,948.8046875,949.90234375,950.94921875,950.97265625,950.484375,948.7421875,947.87109375,948.93359375,950.46484375,950.73046875,950.86328125,949.9296875,948.96484375,949.48046875,948.73828125,948.8671875,947.43359375,947.21484375,947.60546875,947.30078125,949.6484375,949.32421875,948.66015625,947.828125,948.4140625,950.70703125,950.8515625,949.92578125,950.4609375,949.23046875,949.61328125,949.8046875,951.90234375,951.44921875,952.72265625,950.859375,950.4296875,951.21484375,951.60546875,951.30078125,950.6484375,948.82421875,948.41015625,948.703125,950.3515625,949.67578125,949.3359375,947.16796875,947.08203125,948.0390625,949.01953125,948.5078125,947.25390625,946.625,946.3125,947.65625,949.328125,949.6640625,949.83203125,949.4140625,950.20703125,950.6015625,951.80078125,951.8984375,951.94921875,951.47265625,951.734375,952.8671875,956.43359375,958.71484375,959.85546875,961.42578125,964.2109375,966.60546875,968.80078125,969.3984375,970.69921875,971.34765625,973.671875,975.3359375,977.66796875,978.33203125,978.1640625,978.58203125,978.7890625,980.39453125,980.6953125,980.84765625,980.421875,979.2109375,979.10546875,979.55078125,979.7734375,980.38671875,980.19140625,979.59375,979.796875,979.3984375,980.19921875,979.09765625,976.546875,975.7734375,977.38671875,978.19140625,979.09375,979.046875,978.5234375,977.26171875,977.62890625,979.3125,979.65625,977.828125,977.9140625,976.45703125,975.7265625,975.86328125,975.9296875,974.46484375,974.23046875,972.11328125,972.5546875,973.77734375,973.88671875,972.44140625,970.21875,968.109375,967.5546875,968.77734375,968.38671875,968.69140625,968.84375,966.921875,967.4609375,967.23046875,969.11328125,969.5546875,968.77734375,967.38671875,968.69140625,970.34375,971.171875,970.5859375,968.79296875,968.39453125,967.1953125,969.09765625,970.046875,970.5234375,969.76171875,968.87890625,970.4375,971.21875,972.109375,972.0546875,970.52734375,969.26171875,970.12890625,973.5625,975.78125,977.390625,977.1953125,977.59765625,979.296875,982.6484375,984.82421875,986.41015625,988.203125,989.1015625,991.55078125,993.2734375,996.63671875,997.81640625,998.90625,996.953125,994.4765625,993.73828125,993.8671875,994.43359375,993.71484375,992.85546875,992.42578125,993.2109375,997.60546875,1000.30078125,1000.1484375,995.07421875,991.53515625,988.265625,986.6328125,984.31640625,981.15625,977.078125,975.5390625,974.26953125,973.6328125,971.31640625,970.15625,969.578125,968.2890625,968.64453125,969.8203125,969.91015625,968.453125,966.2265625,965.11328125,965.0546875,966.02734375,965.51171875,963.75390625,962.375,963.1875,963.09375,965.046875,966.0234375,966.51171875,964.75390625,963.375,959.6875,954.34375,948.171875,940.5859375,931.79296875,926.89453125,932.9453125,948.97265625,969.484375,989.7421875,1010.87109375,1039.93359375,1077.46484375,1122.73046875,1165.36328125,1199.1796875,1221.58984375,1226.29296875,1202.14453125,1147.5703125,1077.78515625,1014.390625,973.6953125,958.84765625,958.921875,962.4609375,962.23046875,959.61328125,957.8046875,957.40234375,957.19921875,957.59765625,956.296875,955.1484375,954.07421875,954.53515625,955.265625,956.6328125,956.31640625,955.15625,953.078125,952.5390625,953.76953125,956.8828125,957.44140625,957.21875,957.109375,957.5546875,957.77734375,958.38671875,958.19140625,956.59375,953.796875,952.8984375,953.94921875,955.47265625,955.234375,952.6171875,951.30859375,951.65234375,953.32421875,953.66015625,953.328125,953.1640625,951.58203125,949.7890625,951.39453125,950.6953125,950.34765625,951.171875,951.5859375,951.79296875,953.39453125,954.6953125,954.34765625,953.671875,952.3359375,952.16796875,953.08203125,953.5390625,953.26953125,951.6328125,951.31640625,951.65625,951.828125,952.4140625,952.20703125,950.1015625,949.55078125,948.2734375,948.13671875,949.06640625,949.03125,948.515625,947.2578125,947.62890625,947.3125,947.15625,948.078125,948.5390625,948.26953125,949.1328125,949.06640625,948.03125,948.015625,947.0078125,947.00390625,949.5,951.75,953.375,954.1875,954.59375,955.296875,957.1484375,961.07421875,963.53515625,964.265625,965.6328125,966.31640625,968.15625,970.578125,971.2890625,971.64453125,971.8203125,969.91015625,970.453125,972.2265625,975.11328125,976.5546875,977.27734375,976.13671875,975.06640625,974.53125,975.265625,975.6328125,974.81640625,973.40625,973.703125,975.3515625,977.67578125,978.3359375,976.66796875,974.83203125,973.9140625,973.45703125,972.7265625,972.86328125,970.4296875,968.21484375,969.10546875,969.55078125,972.7734375,972.88671875,970.94140625,969.96875,969.984375,969.9921875,970.49609375,970.24609375,969.62109375,968.80859375,967.90234375,967.94921875,967.97265625,966.484375,963.7421875,961.87109375,961.93359375,963.46484375,963.73046875,964.36328125,965.1796875,962.58984375,961.29296875,960.64453125,960.3203125,961.66015625,961.828125,961.4140625,961.70703125,962.8515625,963.42578125,963.7109375,961.85546875,959.42578125,959.2109375,961.10546875,961.55078125,961.7734375,961.38671875,960.69140625,961.34375,962.671875,963.8359375,963.91796875,962.45703125,962.2265625,961.61328125,960.8046875,962.90234375,962.94921875,962.47265625,961.234375,961.6171875,963.30859375,965.65234375,966.82421875,967.91015625,969.453125,970.7265625,974.36328125,976.6796875,978.83984375,978.41796875,978.20703125,979.6015625,981.30078125,984.6484375,985.82421875,985.41015625,984.203125,984.6015625,984.30078125,985.1484375,983.57421875,981.78515625,980.390625,982.6953125,983.84765625,984.921875,984.4609375,984.23046875,985.61328125,987.8046875,989.90234375,989.44921875,985.72265625,981.859375,977.4296875,974.21484375,970.60546875,968.30078125,967.1484375,964.07421875,961.53515625,960.265625,960.1328125,960.06640625,959.53125,957.765625,955.8828125,955.44140625,955.21875,956.609375,957.3046875,958.15234375,957.07421875,956.53515625,956.265625,957.6328125,957.81640625,957.40625,956.203125,956.1015625,957.05078125,958.5234375,959.26171875,958.62890625,956.8125,954.40625,950.203125,946.1015625,940.05078125,934.5234375,927.26171875,920.12890625,918.0625,925.03125,943.015625,966.5078125,996.25390625,1035.125,1081.5625,1129.78125,1170.890625,1194.9453125,1192.47265625,1157.234375,1097.1171875,1033.05859375,982.52734375,952.76171875,939.37890625,937.1875,940.59375,942.796875,942.3984375,943.69921875,942.34765625,943.171875,943.5859375,943.79296875,943.39453125,941.1953125,940.09765625,940.546875,940.7734375,942.88671875,943.44140625,943.21875,944.109375,943.5546875,944.27734375,944.13671875,944.56640625,942.78125,940.890625,941.4453125,942.72265625,942.859375,942.9296875,941.96484375,940.48046875,940.23828125,941.1171875,941.05859375,941.02734375,939.51171875,937.25390625,938.125,937.5625,938.78125,939.390625,938.6953125,937.34765625,938.171875,939.5859375,941.79296875,941.89453125,940.9453125,939.97265625,939.984375,940.9921875,941.49609375,940.74609375,939.87109375,938.43359375,938.21484375,938.10546875,939.55078125,939.2734375,939.13671875,937.56640625,938.28125,939.640625,940.8203125,940.91015625,940.453125,937.7265625,936.36328125,938.1796875,939.08984375,939.04296875,937.51953125,936.7578125,935.87890625,936.9375,936.46875,934.734375,932.8671875,931.43359375,931.21484375,933.10546875,932.55078125,931.7734375,930.88671875,929.44140625,928.71875,929.359375,931.6796875,931.83984375,932.41796875,933.20703125,936.6015625,940.80078125,944.8984375,946.44921875,949.22265625,950.609375,953.3046875,957.15234375,961.07421875,963.03515625,964.515625,964.2578125,965.62890625,966.8125,969.40625,971.203125,971.6015625,971.80078125,972.3984375,973.19921875,975.09765625,976.046875,977.0234375,976.01171875,976.50390625,978.25,979.125,977.5625,976.28125,975.640625,975.3203125,976.66015625,977.328125,976.6640625,974.83203125,973.9140625,972.95703125,973.9765625,974.48828125,974.2421875,972.62109375,972.30859375,972.65234375,973.32421875,973.66015625,973.828125,972.9140625,971.95703125,970.9765625,970.98828125,971.9921875,970.99609375,970.99609375,968.99609375,969.99609375,971.49609375,972.74609375,971.87109375,970.43359375,969.71484375,969.85546875,967.92578125,967.4609375,967.23046875,966.11328125,965.0546875,964.52734375,965.76171875,967.87890625,967.9375,966.96875,964.984375,965.4921875,966.24609375,967.62109375,967.80859375,966.90234375,965.94921875,965.97265625,966.984375,967.4921875,967.24609375,968.12109375,968.05859375,969.02734375,970.01171875,970.50390625,970.25,970.625,969.8125,968.90625,968.953125,969.9765625,971.48828125,970.2421875,969.12109375,971.55859375,973.77734375,975.38671875,977.19140625,977.09375,976.046875,978.0234375,980.51171875,982.75390625,984.875,984.9375,984.96875,986.484375,989.7421875,991.87109375,993.93359375,994.46484375,994.23046875,994.61328125,994.8046875,994.40234375,993.69921875,992.34765625,990.671875,991.3359375,993.66796875,994.83203125,992.9140625,990.45703125,990.2265625,992.11328125,996.0546875,1000.52734375,1000.76171875,996.87890625,989.9375,985.96875,982.984375,981.4921875,978.74609375,974.37109375,969.68359375,968.33984375,968.16796875,968.08203125,968.5390625,968.26953125,966.1328125,966.56640625,967.28125,967.140625,966.5703125,966.28515625,964.140625,962.5703125,962.28515625,962.640625,963.3203125,963.16015625,962.578125,961.2890625,962.64453125,964.3203125,963.66015625,962.328125,959.1640625,956.58203125,952.2890625,947.64453125,944.3203125,937.66015625,930.328125,928.1640625,934.08203125,952.0390625,977.01953125,1004.5078125,1038.75390625,1084.375,1134.1875,1182.09375,1218.546875,1239.2734375,1237.63671875,1206.31640625,1147.65625,1078.828125,1016.4140625,973.70703125,952.8515625,948.42578125,950.2109375,954.10546875,956.05078125,954.5234375,952.76171875,953.87890625,954.4375,955.21875,955.609375,954.3046875,953.15234375,952.57421875,951.78515625,953.390625,953.1953125,951.59765625,949.796875,950.8984375,952.44921875,952.72265625,951.859375,950.9296875,949.96484375,950.48046875,949.73828125,949.8671875,951.43359375,950.21484375,949.10546875,948.55078125,948.7734375,950.38671875,951.19140625,951.59375,951.296875,950.6484375,951.32421875,952.16015625,952.578125,953.2890625,952.14453125,952.5703125,952.78515625,953.890625,954.4453125,953.72265625,951.359375,950.6796875,950.83984375,952.41796875,951.70703125,950.8515625,949.92578125,949.9609375,950.48046875,951.73828125,949.8671875,948.43359375,946.71484375,947.35546875,948.17578125,949.5859375,949.29296875,948.14453125,948.0703125,949.53515625,950.765625,953.3828125,953.19140625,952.59375,951.296875,950.1484375,951.07421875,952.53515625,951.765625,950.8828125,947.94140625,948.96875,949.484375,949.7421875,949.87109375,948.43359375,947.71484375,947.35546875,948.17578125,948.5859375,949.29296875,948.64453125,948.8203125,949.91015625,950.953125,952.9765625,954.48828125,955.2421875,956.12109375,958.55859375,961.27734375,964.13671875,967.56640625,969.78125,971.390625,972.6953125,975.34765625,977.171875,978.5859375,978.29296875,977.64453125,978.3203125,979.16015625,978.578125,979.7890625,979.39453125,978.1953125,979.59765625,979.796875,980.8984375,980.44921875,980.22265625,979.109375,978.5546875,979.77734375,981.88671875,981.94140625,980.96875,980.484375,979.7421875,980.37109375,980.68359375,981.33984375,979.66796875,978.33203125,977.6640625,977.33203125,977.6640625,979.33203125,977.6640625,975.83203125,973.4140625,975.20703125,976.6015625,976.30078125,975.6484375,973.82421875,975.41015625,974.703125,976.3515625,977.67578125,975.8359375,975.41796875,975.70703125,975.8515625,975.92578125,975.9609375,974.48046875,972.73828125,971.8671875,972.43359375,973.21484375,972.10546875,970.55078125,968.7734375,968.88671875,969.94140625,970.46875,969.234375,968.1171875,966.05859375,965.52734375,966.76171875,967.37890625,968.1875,967.59375,966.796875,967.3984375,968.19921875,969.59765625,970.296875,970.6484375,969.82421875,968.91015625,969.453125,969.2265625,971.11328125,972.0546875,972.02734375,973.51171875,976.25390625,978.625,980.8125,981.40625,981.203125,982.1015625,983.55078125,983.7734375,984.38671875,985.69140625,986.34375,988.671875,990.8359375,993.91796875,994.95703125,996.4765625,995.23828125,995.6171875,995.30859375,996.15234375,995.07421875,994.53515625,994.265625,995.6328125,995.31640625,997.15625,1000.078125,1001.0390625,998.51953125,993.2578125,989.12890625,985.5625,983.28125,980.140625,977.5703125,974.28515625,972.140625,971.5703125,970.78515625,969.890625,969.4453125,968.72265625,969.859375,970.4296875,970.21484375,968.60546875,966.80078125,966.8984375,966.94921875,967.47265625,966.734375,966.8671875,964.43359375,964.21484375,965.10546875,965.05078125,964.0234375,962.51171875,961.75390625,962.375,960.1875,956.59375,950.796875,945.8984375,942.44921875,939.72265625,934.859375,927.4296875,920.71484375,918.85546875,921.42578125,934.2109375,954.10546875,979.05078125,1009.5234375,1047.76171875,1094.87890625,1145.4375,1189.21875,1217.609375,1221.8046875,1194.40234375,1135.69921875,1066.34765625,1006.671875,971.8359375,956.91796875,954.45703125,954.7265625,956.36328125,957.6796875,957.83984375,958.41796875,957.70703125,954.3515625,953.67578125,955.3359375,956.66796875,955.83203125,955.4140625,955.20703125,954.6015625,954.30078125,954.6484375,954.82421875,953.41015625,953.703125,954.3515625,954.67578125,955.3359375,955.16796875,955.08203125,954.0390625,954.51953125,954.7578125,955.87890625,955.9375,955.46875,954.734375,954.3671875,955.18359375,956.08984375,956.04296875,957.51953125,957.2578125,957.12890625,958.5625,959.28125,959.140625,958.0703125,957.03515625,955.515625,955.7578125,956.87890625,957.4375,955.71875,954.859375,954.4296875,954.71484375,955.85546875,955.42578125,954.2109375,951.10546875,951.05078125,952.0234375,954.01171875,955.00390625,953.5,953.25,953.625,954.3125,956.15625,956.078125,955.0390625,953.51953125,952.2578125,953.12890625,953.5625,952.78125,952.390625,951.6953125,951.84765625,952.421875,952.7109375,953.35546875,953.17578125,951.0859375,950.54296875,951.26953125,953.6328125,954.31640625,954.15625,952.578125,952.2890625,953.64453125,954.3203125,954.16015625,954.078125,953.5390625,954.26953125,955.1328125,958.06640625,960.03125,961.015625,962.0078125,964.50390625,968.25,972.125,974.5625,975.28125,975.640625,977.3203125,978.16015625,979.578125,979.7890625,980.39453125,980.1953125,980.09765625,981.046875,982.5234375,982.26171875,983.12890625,981.5625,981.28125,982.140625,982.5703125,982.28515625,981.640625,979.8203125,980.41015625,982.203125,983.1015625,984.05078125,983.5234375,982.76171875,982.87890625,982.4375,982.71875,983.359375,983.1796875,981.58984375,980.29296875,980.64453125,979.8203125,979.91015625,979.953125,977.9765625,976.48828125,977.2421875,978.12109375,978.55859375,979.27734375,977.63671875,976.31640625,975.65625,976.328125,977.1640625,976.08203125,975.0390625,974.51953125,974.7578125,974.87890625,974.9375,974.96875,973.984375,974.4921875,974.24609375,974.62109375,974.30859375,974.15234375,973.57421875,972.28515625,971.140625,972.5703125,971.28515625,971.140625,969.5703125,968.78515625,969.890625,971.4453125,972.22265625,971.109375,970.5546875,970.27734375,971.13671875,972.06640625,973.03125,971.015625,970.0078125,970.50390625,971.25,972.125,972.5625,971.78125,971.390625,971.6953125,971.34765625,972.171875,973.0859375,973.04296875,973.51953125,973.7578125,974.87890625,976.4375,978.21875,978.609375,978.8046875,979.90234375,981.94921875,985.47265625,987.734375,988.3671875,987.18359375,986.58984375,987.79296875,989.89453125,991.9453125,994.47265625,994.734375,995.8671875,997.93359375,997.96484375,997.98046875,995.98828125,993.9921875,992.99609375,993.99609375,995.49609375,996.24609375,995.12109375,993.55859375,994.77734375,998.88671875,1001.94140625,1002.46875,998.234375,991.6171875,986.80859375,984.40234375,983.69921875,981.34765625,977.171875,974.0859375,971.54296875,970.26953125,969.6328125,968.31640625,968.15625,967.078125,966.0390625,966.01953125,967.0078125,967.50390625,966.75,966.375,966.1875,966.09375,967.046875,966.5234375,966.76171875,965.87890625,964.9375,964.96875,964.984375,964.9921875,962.49609375,958.24609375,955.12109375,952.05859375,949.02734375,947.01171875,944.50390625,942.75,941.375,935.6875,927.84375,921.421875,921.7109375,931.85546875,952.42578125,978.7109375,1011.85546875,1055.92578125,1106.4609375,1152.23046875,1185.11328125,1195.5546875,1172.77734375,1116.38671875,1049.69140625,992.34375,959.671875,949.8359375,951.41796875,953.70703125,952.3515625,949.67578125,949.3359375,950.66796875,952.33203125,953.6640625,954.33203125,952.6640625,950.83203125,950.9140625,951.45703125,951.2265625,951.11328125,951.0546875,951.02734375,952.51171875,954.25390625,954.125,952.5625,951.78125,951.390625,951.6953125,950.84765625,949.921875,948.9609375,948.48046875,947.73828125,948.8671875,951.43359375,951.71484375,950.85546875,949.42578125,949.7109375,950.85546875,953.92578125,953.4609375,952.73046875,950.36328125,950.6796875,951.33984375,951.66796875,952.33203125,950.1640625,948.58203125,948.7890625,949.39453125,949.6953125,948.84765625,947.921875,946.4609375,946.73046875,948.36328125,950.1796875,951.08984375,951.04296875,950.01953125,949.5078125,950.25390625,951.625,951.8125,951.40625,950.703125,951.3515625,951.67578125,952.8359375,953.41796875,952.70703125,951.8515625,952.92578125,953.4609375,952.73046875,953.36328125,952.1796875,950.58984375,950.29296875,949.64453125,949.3203125,948.16015625,946.078125,944.5390625,943.76953125,944.8828125,944.94140625,945.96875,945.984375,944.9921875,943.99609375,944.99609375,946.99609375,947.99609375,948.49609375,948.74609375,950.37109375,952.68359375,956.33984375,958.66796875,959.83203125,960.4140625,961.20703125,963.6015625,965.80078125,967.3984375,967.19921875,967.09765625,968.046875,971.5234375,971.76171875,971.87890625,971.4375,971.71875,971.859375,973.4296875,975.71484375,976.35546875,975.17578125,974.5859375,974.79296875,975.39453125,977.1953125,977.59765625,976.796875,974.8984375,974.44921875,974.22265625,975.109375,974.5546875,973.27734375,972.13671875,971.56640625,973.28125,975.140625,975.5703125,974.28515625,972.640625,970.8203125,970.91015625,971.453125,971.2265625,971.11328125,969.5546875,969.77734375,970.38671875,971.19140625,971.59375,971.796875,970.8984375,968.94921875,968.97265625,967.984375,967.9921875,966.49609375,965.24609375,966.12109375,967.05859375,967.02734375,966.01171875,964.00390625,962.0,962.0,963.0,963.5,963.75,962.875,961.9375,961.46875,962.234375,963.1171875,964.05859375,962.52734375,961.26171875,962.12890625,964.0625,965.03125,964.015625,962.5078125,960.75390625,961.375,961.6875,963.84375,963.421875,962.7109375,959.35546875,958.67578125,959.8359375,960.91796875,961.95703125,961.9765625,960.98828125,961.9921875,963.49609375,964.24609375,964.62109375,964.80859375,963.90234375,963.94921875,964.97265625,965.984375,966.4921875,965.24609375,963.62109375,964.30859375,964.65234375,966.82421875,967.91015625,967.453125,967.2265625,967.11328125,968.5546875,970.77734375,972.88671875,973.94140625,973.46875,973.734375,975.8671875,977.93359375,979.96484375,981.98046875,982.48828125,983.2421875,984.62109375,985.30859375,984.65234375,984.32421875,982.66015625,982.328125,982.1640625,981.58203125,982.7890625,982.39453125,980.6953125,979.84765625,980.421875,982.7109375,985.85546875,984.92578125,980.9609375,978.98046875,975.98828125,974.4921875,971.74609375,967.87109375,964.43359375,962.71484375,960.85546875,959.42578125,958.2109375,957.10546875,957.05078125,957.0234375,956.51171875,957.75390625,957.875,956.4375,953.71875,952.859375,952.9296875,953.96484375,956.48046875,955.73828125,955.3671875,953.68359375,954.33984375,954.66796875,954.33203125,953.6640625,952.83203125,953.9140625,955.45703125,956.7265625,956.86328125,954.4296875,949.71484375,945.35546875,938.67578125,936.8359375,931.41796875,924.20703125,919.6015625,923.80078125,938.3984375,960.19921875,988.59765625,1024.796875,1068.3984375,1117.19921875,1157.59765625,1181.296875,1180.1484375,1147.57421875,1091.28515625,1031.140625,982.0703125,953.53515625,940.765625,936.8828125,936.44140625,938.71875,941.359375,942.6796875,943.33984375,942.16796875,941.08203125,941.0390625,942.51953125,943.7578125,944.37890625,944.1875,942.59375,941.296875,941.1484375,942.57421875,942.28515625,942.140625,940.5703125,939.28515625,941.140625,941.0703125,942.03515625,941.515625,940.7578125,941.37890625,942.6875,944.84375,945.421875,944.2109375,942.10546875,943.55078125,945.2734375,945.13671875,944.56640625,943.78125,941.890625,941.4453125,942.22265625,943.109375,943.5546875,942.27734375,940.13671875,940.06640625,941.03125,942.015625,942.0078125,941.00390625,939.5,939.25,938.625,939.8125,940.40625,940.203125,938.1015625,938.55078125,939.7734375,940.88671875,939.94140625,939.96875,939.984375,939.9921875,940.49609375,941.24609375,941.12109375,941.05859375,939.52734375,938.76171875,938.87890625,939.9375,938.96875,936.984375,934.9921875,934.99609375,935.49609375,934.24609375,934.12109375,933.55859375,931.27734375,930.13671875,930.56640625,930.28125,930.140625,928.5703125,927.28515625,927.140625,928.0703125,930.03515625,930.015625,930.0078125,929.00390625,929.5,931.75,934.375,935.1875,934.59375,934.796875,934.8984375,936.94921875,940.47265625,943.234375,944.6171875,946.80859375,949.90234375,953.44921875,955.72265625,957.359375,959.6796875,960.83984375,962.41796875,964.20703125,966.6015625,967.30078125,967.6484375,966.82421875,967.41015625,968.703125,970.8515625,971.42578125,970.2109375,970.10546875,971.05078125,972.0234375,973.51171875,973.75390625,973.875,972.4375,971.21875,972.609375,974.3046875,975.15234375,974.07421875,972.53515625,970.265625,970.6328125,971.81640625,971.90625,970.453125,968.7265625,968.36328125,969.1796875,969.58984375,968.79296875,968.39453125,967.6953125,967.84765625,968.921875,970.9609375,970.98046875,969.98828125,968.9921875,968.49609375,968.74609375,969.87109375,969.43359375,969.71484375,968.85546875,966.42578125,966.7109375,967.35546875,967.67578125,967.3359375,966.16796875,967.08203125,968.0390625,968.01953125,968.0078125,967.50390625,966.75,964.375,965.1875,966.59375,967.296875,966.6484375,965.82421875,966.41015625,968.703125,968.3515625,968.17578125,966.5859375,966.79296875,966.39453125,968.1953125,968.59765625,969.296875,968.1484375,967.07421875,967.03515625,967.015625,968.0078125,968.50390625,968.75,968.375,968.6875,970.84375,972.421875,972.7109375,972.35546875,972.17578125,972.0859375,974.04296875,976.01953125,977.0078125,977.00390625,975.5,976.25,978.125,980.5625,982.78125,982.890625,982.4453125,983.22265625,986.609375,988.3046875,990.15234375,991.07421875,990.53515625,991.765625,993.3828125,995.19140625,994.59375,992.296875,989.6484375,990.82421875,990.91015625,991.953125,992.4765625,993.73828125,993.3671875,995.18359375,999.08984375,1002.04296875,1000.51953125,994.7578125,988.87890625,985.4375,984.21875,983.109375,980.5546875,977.77734375,974.38671875,972.19140625,970.59375,969.296875,969.1484375,969.07421875,968.03515625,968.015625,968.0078125,968.50390625,967.75,966.375,965.6875,964.84375,965.921875,966.4609375,967.23046875,966.61328125,964.8046875,963.90234375,964.44921875,965.72265625,965.359375,961.6796875,958.33984375,953.16796875,949.58203125,945.2890625,940.14453125,934.0703125,933.53515625,941.765625,962.8828125,990.44140625,1023.21875,1064.109375,1112.5546875,1161.77734375,1199.88671875,1215.44140625,1197.21875,1144.109375,1071.0546875,1008.02734375,970.01171875,957.00390625,956.5,957.75,957.875,956.4375,955.71875,957.359375,958.1796875,957.58984375,956.29296875,954.64453125,955.8203125,957.91015625,957.953125,958.4765625,957.23828125,956.6171875,957.30859375,958.15234375,958.07421875,957.53515625,956.265625,955.6328125,956.81640625,957.90625,957.953125,957.4765625,954.73828125,955.3671875,955.68359375,956.83984375,957.41796875,956.20703125,955.6015625,955.30078125,955.6484375,956.32421875,958.16015625,958.078125,957.0390625,957.51953125,958.7578125,959.87890625,960.9375,959.96875,958.484375,957.7421875,958.87109375,958.93359375,958.46484375,956.73046875,954.36328125,954.6796875,955.83984375,956.91796875,956.95703125,956.4765625,954.73828125,955.3671875,956.18359375,958.08984375,958.54296875,958.76953125,958.3828125,958.19140625,958.59375,958.796875,958.3984375,957.69921875,956.84765625,956.421875,955.7109375,956.35546875,956.17578125,955.5859375,954.79296875,952.39453125,952.6953125,953.34765625,954.671875,953.8359375,952.41796875,952.20703125,953.6015625,954.30078125,955.1484375,955.57421875,955.28515625,956.640625,958.8203125,961.41015625,964.203125,965.6015625,965.80078125,968.3984375,971.19921875,974.09765625,975.546875,977.2734375,978.13671875,978.56640625,980.28125,982.640625,983.3203125,983.66015625,982.828125,983.4140625,984.70703125,986.8515625,987.42578125,987.7109375,985.85546875,985.92578125,987.4609375,988.73046875,988.86328125,988.9296875,987.46484375,986.73046875,986.86328125,986.9296875,986.96484375,985.48046875,984.23828125,983.6171875,984.30859375,985.15234375,985.57421875,984.28515625,982.640625,981.8203125,981.41015625,982.203125,982.1015625,981.55078125,979.2734375,979.13671875,980.06640625,981.53125,981.265625,981.1328125,979.56640625,979.78125,979.890625,980.4453125,980.72265625,979.359375,976.6796875,975.83984375,975.91796875,976.45703125,976.7265625,975.86328125,974.4296875,973.71484375,974.35546875,975.67578125,976.3359375,974.66796875,973.33203125,973.1640625,974.08203125,975.0390625,975.01953125,975.0078125,974.50390625,975.25,975.125,976.0625,975.53125,975.765625,973.8828125,972.44140625,973.21875,973.609375,975.3046875,974.15234375,973.57421875,973.78515625,974.890625,976.4453125,979.22265625,979.609375,979.8046875,981.40234375,982.69921875,985.84765625,987.421875,988.2109375,988.10546875,989.55078125,991.7734375,994.38671875,996.69140625,997.84375,998.421875,998.7109375,1000.35546875,1000.67578125,999.8359375,997.91796875,994.95703125,994.4765625,995.73828125,996.8671875,999.43359375,1001.21484375,1002.60546875,1003.30078125,1001.1484375,997.57421875,992.28515625,989.140625,984.5703125,982.78515625,981.390625,980.6953125,980.34765625,978.671875,975.3359375,975.16796875,975.58203125,975.7890625,975.89453125,974.9453125,970.97265625,971.484375,972.2421875,972.62109375,971.30859375,970.15234375,968.57421875,968.28515625,969.140625,970.5703125,971.28515625,970.140625,968.5703125,967.28515625,968.140625,969.0703125,968.53515625,965.765625,960.3828125,953.69140625,949.34375,945.171875,936.5859375,929.29296875,928.14453125,936.0703125,951.53515625,971.765625,990.8828125,1007.94140625,1028.96875,1060.984375,1104.4921875,1150.24609375,1190.62109375,1217.30859375,1222.15234375,1196.57421875,1141.78515625,1074.390625,1013.1953125,974.59765625,956.796875,955.8984375,958.94921875,961.47265625,961.234375,960.1171875,958.55859375,958.27734375,959.13671875,960.06640625,961.03125,960.515625,959.7578125,958.87890625,959.9375,961.46875,960.234375,960.1171875,958.05859375,956.52734375,957.26171875,957.62890625,958.8125,958.40625,956.703125,956.8515625,958.42578125,959.2109375,960.10546875,960.05078125,956.0234375,955.51171875,955.75390625,958.375,959.6875,960.34375,960.671875,961.3359375,962.16796875,963.58203125,964.2890625,963.14453125,962.0703125,962.03515625,962.515625,962.2578125,961.12890625,959.5625,958.28125,958.140625,959.0703125,960.03515625,960.015625,959.5078125,957.75390625,956.875,957.9375,959.46875,959.734375,958.3671875,957.68359375,957.33984375,958.16796875,959.08203125,960.5390625,959.76953125,958.3828125,959.19140625,958.09375,958.546875,958.7734375,956.88671875,955.44140625,955.71875,957.359375,958.6796875,958.83984375,956.91796875,955.45703125,955.2265625,954.61328125,956.3046875,957.15234375,956.57421875,955.78515625,957.390625,959.1953125,961.59765625,962.296875,963.6484375,965.32421875,966.66015625,969.828125,972.9140625,974.95703125,975.9765625,976.48828125,976.7421875,978.37109375,979.68359375,981.83984375,981.91796875,980.45703125,979.7265625,981.36328125,982.6796875,983.33984375,984.16796875,983.08203125,982.0390625,984.01953125,984.5078125,984.75390625,984.375,982.6875,983.34375,983.671875,983.8359375,984.91796875,983.95703125,982.4765625,981.23828125,981.6171875,982.80859375,981.90234375,980.94921875,978.47265625,976.734375,977.8671875,979.43359375,979.21484375,979.10546875,978.55078125,978.7734375,978.88671875,980.44140625,980.21875,979.609375,977.8046875,977.40234375,977.69921875,977.34765625,978.671875,977.3359375,974.66796875,972.33203125,973.1640625,974.58203125,974.2890625,973.64453125,971.3203125,969.66015625,969.328125,969.6640625,971.33203125,970.1640625,969.58203125,969.2890625,970.14453125,971.0703125,972.03515625,972.015625,971.5078125,972.75390625,972.875,973.4375,972.71875,972.359375,971.1796875,970.58984375,971.79296875,972.89453125,974.4453125,973.22265625,971.609375,971.8046875,972.90234375,975.44921875,976.72265625,975.859375,974.9296875,976.46484375,979.73046875,982.86328125,984.4296875,985.71484375,986.35546875,987.67578125,989.8359375,991.41796875,992.20703125,992.1015625,993.05078125,995.0234375,997.51171875,999.25390625,1000.625,998.8125,996.90625,994.953125,993.9765625,993.98828125,993.9921875,994.49609375,993.74609375,994.87109375,997.43359375,1001.71484375,1005.35546875,1005.17578125,1001.5859375,997.79296875,993.39453125,991.6953125,990.34765625,987.671875,984.3359375,980.66796875,978.83203125,976.9140625,974.45703125,970.7265625,967.86328125,966.9296875,967.46484375,967.73046875,968.86328125,967.4296875,967.21484375,965.10546875,965.05078125,966.0234375,965.51171875,965.25390625,964.125,963.5625,963.78125,964.890625,965.9453125,964.97265625,963.984375,962.4921875,960.74609375,958.87109375,952.93359375,947.96484375,942.98046875,938.98828125,932.9921875,924.99609375,919.49609375,918.74609375,925.37109375,940.18359375,961.08984375,987.54296875,1019.76953125,1058.3828125,1103.19140625,1146.59375,1179.796875,1190.3984375,1172.69921875,1124.84765625,1059.421875,1002.2109375,967.60546875,953.80078125,952.3984375,954.69921875,953.84765625,952.921875,953.4609375,954.73046875,955.36328125,954.1796875,952.58984375,952.29296875,953.64453125,953.3203125,954.16015625,953.578125,953.2890625,952.64453125,952.8203125,953.91015625,953.953125,953.9765625,951.98828125,952.4921875,954.24609375,955.62109375,955.30859375,953.15234375,951.57421875,949.78515625,950.390625,950.6953125,951.34765625,952.171875,951.0859375,952.54296875,953.26953125,954.6328125,955.31640625,955.65625,955.328125,953.6640625,954.33203125,954.6640625,954.83203125,954.9140625,952.95703125,952.4765625,951.23828125,951.6171875,952.30859375,951.15234375,949.07421875,948.53515625,949.265625,950.1328125,949.56640625,949.28125,948.140625,947.0703125,947.53515625,948.765625,950.3828125,951.19140625,950.59375,950.296875,951.1484375,952.57421875,952.28515625,950.640625,949.3203125,949.16015625,947.578125,947.2890625,947.14453125,946.0703125,943.53515625,943.265625,943.6328125,944.81640625,945.90625,945.953125,944.4765625,944.73828125,946.3671875,947.68359375,949.83984375,951.91796875,952.95703125,953.9765625,955.48828125,957.7421875,959.87109375,960.43359375,960.71484375,960.85546875,962.42578125,964.2109375,965.10546875,964.55078125,964.7734375,966.38671875,967.69140625,969.84375,971.421875,971.2109375,970.60546875,969.80078125,971.3984375,973.19921875,974.09765625,974.046875,972.5234375,972.76171875,974.87890625,975.4375,976.21875,973.609375,971.8046875,970.40234375,971.69921875,973.34765625,973.171875,971.5859375,969.79296875,968.89453125,968.9453125,968.97265625,968.984375,966.4921875,965.74609375,966.37109375,968.68359375,969.83984375,970.91796875,969.45703125,967.2265625,965.61328125,965.8046875,966.90234375,966.94921875,965.47265625,963.734375,961.3671875,961.68359375,962.83984375,962.91796875,962.45703125,960.7265625,960.36328125,961.1796875,961.58984375,962.29296875,961.14453125,960.0703125,959.53515625,961.265625,961.6328125,961.81640625,961.40625,960.203125,960.1015625,960.05078125,960.0234375,961.01171875,962.00390625,961.5,960.75,960.375,961.1875,961.59375,960.296875,958.6484375,958.82421875,958.91015625,960.953125,961.4765625,960.73828125,958.8671875,959.43359375,960.21484375,962.60546875,963.30078125,962.6484375,961.32421875,959.66015625,960.828125,962.9140625,964.95703125,965.9765625,964.98828125,965.4921875,967.24609375,969.12109375,970.55859375,972.27734375,973.63671875,974.31640625,975.15625,977.578125,979.7890625,979.89453125,979.4453125,979.72265625,981.859375,983.4296875,984.21484375,982.60546875,979.80078125,978.3984375,980.19921875,982.59765625,983.296875,982.6484375,983.32421875,986.16015625,988.578125,987.7890625,983.89453125,978.9453125,972.47265625,967.734375,963.8671875,961.43359375,959.71484375,957.85546875,954.42578125,954.2109375,956.10546875,958.05078125,958.0234375,957.51171875,955.25390625,953.625,953.3125,954.65625,955.828125,954.9140625,953.45703125,953.2265625,953.11328125,953.5546875,954.27734375,955.13671875,953.56640625,952.78125,952.390625,953.6953125,953.84765625,953.921875,950.9609375,947.98046875,942.98828125,939.4921875,936.24609375,932.12109375,925.05859375,916.52734375,911.26171875,915.62890625,929.3125,949.15625,973.078125,1007.5390625,1051.26953125,1099.1328125,1141.56640625,1170.28125,1172.640625,1141.3203125,1086.16015625,1028.078125,980.5390625,950.26953125,936.1328125,934.06640625,936.53125,939.765625,940.3828125,940.69140625,939.84375,939.421875,939.2109375,940.10546875,940.55078125,938.7734375,937.38671875,938.19140625,940.59375,942.296875,943.6484375,943.32421875,941.16015625,940.578125,940.7890625,941.39453125,940.6953125,938.84765625,937.921875,937.4609375,938.73046875,939.86328125,940.4296875,940.21484375,939.10546875,937.55078125,938.7734375,939.38671875,939.19140625,938.09375,937.046875,936.0234375,936.51171875,937.75390625,938.375,937.6875,936.34375,936.171875,936.5859375,938.79296875,940.39453125,939.6953125,938.84765625,938.921875,940.4609375,941.73046875,942.86328125,941.9296875,939.46484375,938.73046875,938.36328125,938.6796875,939.33984375,938.66796875,936.83203125,936.4140625,938.20703125,938.1015625,938.05078125,938.0234375,937.51171875,936.25390625,937.125,938.0625,939.03125,937.515625,936.2578125,935.12890625,934.5625,934.28125,933.140625,931.5703125,929.28515625,928.640625,927.8203125,929.91015625,929.953125,929.4765625,928.73828125,928.8671875,929.93359375,931.46484375,932.73046875,933.86328125,934.4296875,936.21484375,939.10546875,942.05078125,945.0234375,946.51171875,948.75390625,950.875,954.4375,957.21875,959.609375,961.3046875,960.65234375,960.82421875,962.91015625,964.953125,965.9765625,965.48828125,965.2421875,966.62109375,967.80859375,969.40234375,970.19921875,970.59765625,969.796875,969.8984375,970.44921875,972.22265625,972.109375,972.0546875,969.02734375,968.51171875,968.75390625,970.375,971.1875,970.09375,968.546875,967.7734375,967.38671875,968.69140625,968.34375,967.671875,967.3359375,968.16796875,969.58203125,970.7890625,970.89453125,970.4453125,968.72265625,968.359375,968.6796875,968.33984375,968.16796875,967.08203125,966.5390625,965.76953125,965.8828125,966.94140625,966.96875,965.984375,964.9921875,963.99609375,964.49609375,964.74609375,964.37109375,964.68359375,963.83984375,963.41796875,963.70703125,964.8515625,966.92578125,967.4609375,966.73046875,966.36328125,967.1796875,967.58984375,969.29296875,969.64453125,968.3203125,967.16015625,969.078125,969.0390625,968.01953125,966.5078125,965.75390625,964.875,965.4375,965.21875,966.109375,965.0546875,964.02734375,963.51171875,963.75390625,964.375,965.6875,966.34375,966.171875,964.5859375,966.79296875,968.39453125,970.1953125,971.09765625,971.046875,971.5234375,973.26171875,975.62890625,977.3125,978.15625,978.578125,978.7890625,979.89453125,982.4453125,984.22265625,985.109375,985.5546875,985.27734375,987.13671875,988.56640625,989.78125,988.890625,986.9453125,987.97265625,988.984375,990.4921875,991.24609375,991.12109375,992.55859375,994.27734375,994.63671875,991.81640625,986.40625,981.703125,978.3515625,975.17578125,973.0859375,972.04296875,970.01953125,966.0078125,964.00390625,962.0,962.5,963.25,963.125,962.0625,960.53125,960.265625,961.6328125,960.81640625,961.90625,961.453125,960.7265625,959.36328125,960.1796875,961.08984375,962.04296875,960.51953125,959.2578125,959.12890625,959.0625,959.53125,958.765625,956.8828125,953.44140625,951.21875,946.109375,941.5546875,937.27734375,931.63671875,922.81640625,916.90625,917.453125,927.7265625,945.36328125,970.1796875,996.08984375,1032.04296875,1076.01953125,1123.0078125,1164.50390625,1191.75,1195.875,1171.9375,1120.96875,1059.484375,1002.2421875,964.12109375,946.05859375,942.02734375,945.01171875,947.00390625,947.5,948.25,946.625,946.8125,947.90625,948.453125,947.7265625,946.86328125,944.9296875,944.96484375,945.48046875,947.23828125,947.6171875,945.80859375,945.40234375,944.19921875,945.09765625,947.046875,948.0234375,947.51171875,947.25390625,946.125,947.0625,948.03125,948.015625,948.5078125,947.25390625,946.125,947.5625,947.28125,946.640625,946.3203125,946.16015625,946.078125,947.0390625,949.51953125,949.2578125,949.12890625,947.5625,946.78125,947.390625,948.1953125,948.59765625,948.296875,947.6484375,945.82421875,945.41015625,947.203125,948.1015625,946.55078125,945.2734375,945.13671875,946.06640625,946.53125,946.765625,946.8828125,944.94140625,944.46875,945.234375,946.6171875,947.30859375,947.65234375,946.82421875,947.41015625,948.203125,949.6015625,951.30078125,950.6484375,948.32421875,947.66015625,947.828125,948.4140625,948.20703125,946.1015625,944.05078125,943.5234375,945.26171875,946.62890625,946.3125,945.15625,943.078125,942.0390625,942.01953125,943.5078125,942.75390625,943.375,942.1875,942.59375,943.796875,944.8984375,945.94921875,947.47265625,947.234375,948.1171875,949.55859375,951.77734375,953.88671875,954.94140625,954.96875,955.984375,959.9921875,963.49609375,965.24609375,965.62109375,967.30859375,968.15234375,970.07421875,971.53515625,972.765625,973.3828125,973.69140625,973.84375,974.421875,975.2109375,976.60546875,976.30078125,974.6484375,974.82421875,974.91015625,974.953125,975.4765625,975.23828125,974.6171875,973.80859375,973.90234375,974.94921875,974.97265625,974.484375,972.7421875,971.87109375,972.43359375,973.21484375,972.10546875,971.05078125,970.0234375,969.51171875,970.75390625,971.875,971.4375,971.71875,970.359375,970.1796875,971.08984375,972.54296875,972.76953125,972.3828125,969.69140625,968.84375,968.421875,969.7109375,967.85546875,967.92578125,965.9609375,965.48046875,967.23828125,966.6171875,966.80859375,966.40234375,964.69921875,963.34765625,963.671875,963.8359375,963.91796875,963.45703125,960.2265625,960.11328125,961.5546875,962.27734375,964.13671875,964.06640625,963.03125,963.015625,962.5078125,963.75390625,963.875,962.4375,961.71875,961.359375,962.1796875,962.08984375,962.04296875,961.51953125,959.7578125,960.87890625,961.9375,963.96875,963.984375,963.9921875,964.99609375,967.99609375,970.49609375,972.24609375,972.62109375,973.80859375,973.40234375,975.19921875,976.09765625,978.046875,979.0234375,979.01171875,979.00390625,980.0,981.5,984.75,985.375,984.6875,984.34375,984.671875,984.8359375,985.41796875,984.20703125,983.1015625,982.55078125,983.2734375,984.63671875,985.81640625,988.40625,991.203125,991.1015625,989.55078125,987.2734375,983.13671875,980.56640625,978.28125,973.140625,969.5703125,967.28515625,966.640625,965.3203125,962.66015625,959.828125,959.9140625,959.95703125,960.4765625,960.73828125,959.8671875,957.93359375,957.46484375,957.23046875,958.61328125,958.8046875,957.40234375,955.19921875,955.09765625,956.046875,958.5234375,958.26171875,957.62890625,955.3125,955.15625,957.078125,959.0390625,959.51953125,958.2578125,955.62890625,952.3125,948.65625,941.828125,936.4140625,930.20703125,922.1015625,915.55078125,915.7734375,924.88671875,943.94140625,966.96875,995.984375,1032.9921875,1079.49609375,1125.74609375,1166.37109375,1193.68359375,1202.83984375,1186.41796875,1142.70703125,1081.8515625,1020.92578125,974.9609375,950.98046875,942.48828125,943.2421875,947.12109375,949.55859375,948.27734375,947.63671875,946.81640625,947.90625,948.953125,947.9765625,947.48828125,945.2421875,944.12109375,945.05859375,944.52734375,945.26171875,944.62890625,944.3125,943.15625,943.578125,944.2890625,944.14453125,942.5703125,942.28515625,943.140625,943.5703125,944.28515625,945.140625,945.5703125,945.28515625,945.140625,946.0703125,946.53515625,946.765625,945.3828125,943.19140625,942.59375,943.296875,944.1484375,945.07421875,945.53515625,942.765625,942.8828125,942.44140625,943.71875,943.359375,943.1796875,942.08984375,941.54296875,941.26953125,942.1328125,943.56640625,941.78125,940.890625,941.4453125,941.72265625,942.859375,943.4296875,943.71484375,943.85546875,944.42578125,945.7109375,947.35546875,947.17578125,944.5859375,943.29296875,943.64453125,944.8203125,944.41015625,944.703125,943.3515625,941.67578125,939.8359375,941.41796875,942.70703125,942.8515625,940.92578125,939.9609375,940.48046875,941.23828125,942.6171875,942.30859375,942.15234375,940.07421875,939.03515625,940.015625,942.0078125,942.50390625,942.75,941.375,942.1875,943.09375
