476.5,713.75,831.375,889.6875,919.84375,934.921875,942.9609375,945.48046875,945.740234375,944.8701171875,945.93505859375,946.467529296875,946.7337646484375,944.8668823242188,944.4334411621094,943.7167205810547,943.3583602905273,943.6791801452637,943.8395900726318,945.4197950363159,945.709897518158,945.854948759079,945.4274743795395,947.7137371897697,949.3568685948849,951.1784342974424,951.5892171487212,952.7946085743606,954.8973042871803,957.9486521435902,960.4743260717951,962.2371630358975,963.6185815179488,963.8092907589744,964.9046453794872,967.9523226897436,970.9761613448718,971.9880806724359,972.494040336218,972.247020168109,972.6235100840545,974.3117550420272,975.6558775210136,975.3279387605069,975.6639693802534,975.3319846901268,975.6659923450634,977.3329961725317,978.6664980862658,977.3332490431329,976.6666245215665,975.3333122607833,975.6666561303916,978.3333280651958,979.666664032598,979.333332016299,978.1666660081495,977.5833330040748,976.2916665020374,977.1458332510188,977.5729166255094,978.2864583127547,977.1432291563774,975.0716145781887,974.5358072890944,975.2679036445472,975.6339518222736,974.8169759111368,973.4084879555684,972.2042439777842,971.1021219888921,971.0510609944461,972.525530497223,971.7627652486115,970.3813826243057,970.1906913121529,969.5953456560765,970.7976728280382,972.3988364140191,972.6994182070096,972.8497091035048,971.9248545517523,971.4624272758762,971.231213637938,972.115606818969,971.0578034094844,969.0289017047422,967.014450852371,967.0072254261855,968.0036127130927,968.5018063565464,968.7509031782731,967.3754515891366,966.1877257945682,965.5938628972841,965.796931448642,967.398465724321,967.6992328621604,966.3496164310802,965.6748082155401,964.83740410777,964.918702053885,964.9593510269425,965.4796755134712,965.2398377567356,965.1199188783678,966.0599594391839,966.5299797195919,967.764989859796,968.882494929898,968.441247464949,969.7206237324745,970.8603118662372,973.9301559331186,976.4650779665593,977.7325389832797,977.8662694916399,978.4331347458199,978.2165673729099,981.108283686455,983.0541418432275,985.5270709216138,987.2635354608069,987.1317677304035,988.5658838652017,991.2829419326008,993.1414709663004,992.0707354831502,990.5353677415751,988.2676838707876,987.1338419353938,989.5669209676969,992.2834604838484,993.1417302419243,993.0708651209621,994.535432560481,997.2677162802405,999.6338581401203,996.8169290700602,991.4084645350301,986.2042322675151,982.1021161337576,977.5510580668788,976.7755290334394,973.3877645167197,970.1938822583598,968.0969411291799,966.0484705645899,966.024235282295,966.0121176411475,966.5060588205738,966.2530294102869,965.6265147051434,963.3132573525718,963.1566286762859,964.078314338143,964.0391571690715,964.0195785845358,963.5097892922679,960.754894646134,961.3774473230669,962.6887236615335,963.8443618307667,963.9221809153834,962.4610904576916,961.2305452288458,962.1152726144229,962.5576363072114,962.2788181536057,962.1394090768028,959.5697045384014,956.7848522692007,950.8924261346003,945.4462130673002,939.72310653365,932.861553266825,926.9307766334125,926.9653883167063,939.9826941583531,966.4913470791765,997.2456735395883,1035.622836769794,1084.811418384897,1138.9057091924485,1185.4528545962244,1214.7264272981122,1214.363213649056,1176.681606824528,1107.840803412264,1033.920401706132,980.460200853066,956.230100426533,952.6150502132665,954.3075251066332,953.6537625533166,950.8268812766582,950.4134406383291,951.2067203191646,952.1033601595823,952.5516800797911,951.7758400398956,949.8879200199478,950.4439600099739,949.721980004987,949.3609900024935,949.1804950012468,947.0902475006234,946.0451237503116,945.5225618751558,947.7612809375779,948.8806404687889,949.4403202343944,949.2201601171972,948.6100800585987,948.8050400292993,949.9025200146497,950.9512600073249,950.9756300036624,950.4878150018312,948.7439075009156,947.8719537504578,948.9359768752289,950.4679884376144,950.7339942188072,950.8669971094037,949.9334985547018,948.9667492773509,949.4833746386755,948.7416873193378,948.8708436596689,947.4354218298345,947.2177109149172,947.6088554574586,947.3044277287293,949.6522138643646,949.3261069321823,948.6630534660911,947.8315267330456,948.4157633665228,950.7078816832613,950.8539408416307,949.9269704208153,950.4634852104077,949.2317426052039,949.6158713026019,949.807935651301,951.9039678256505,951.4519839128252,952.7259919564126,950.8629959782063,950.4314979891031,951.2157489945516,951.6078744972758,951.3039372486379,950.6519686243189,948.8259843121594,948.4129921560798,948.7064960780399,950.35324803902,949.67662401951,949.338312009755,947.1691560048776,947.0845780024388,948.0422890012194,949.0211445006097,948.5105722503049,947.2552861251525,946.6276430625762,946.3138215312881,947.656910765644,949.3284553828221,949.664227691411,949.8321138457055,949.4160569228527,950.2080284614264,950.6040142307131,951.8020071153566,951.9010035576782,951.9505017788391,951.4752508894196,951.7376254447098,952.868812722355,956.4344063611775,958.7172031805887,959.8586015902944,961.4293007951471,964.2146503975736,966.6073251987868,968.8036625993934,969.4018312996967,970.7009156498484,971.3504578249242,973.6752289124621,975.337614456231,977.6688072281155,978.3344036140577,978.1672018070288,978.5836009035145,978.7918004517572,980.3959002258787,980.6979501129393,980.8489750564697,980.4244875282349,979.2122437641174,979.1061218820587,979.5530609410293,979.7765304705147,980.3882652352573,980.1941326176286,979.5970663088143,979.7985331544071,979.3992665772035,980.1996332886017,979.0998166443009,976.5499083221505,975.7749541610752,977.3874770805376,978.1937385402688,979.0968692701344,979.0484346350672,978.5242173175336,977.2621086587668,977.6310543293835,979.3155271646917,979.6577635823459,977.828881791173,977.9144408955865,976.4572204477932,975.7286102238966,975.8643051119483,975.9321525559742,974.4660762779871,974.2330381389936,972.1165190694968,972.5582595347485,973.7791297673742,973.8895648836872,972.4447824418436,970.2223912209217,968.1111956104609,967.5555978052305,968.7777989026152,968.3888994513077,968.6944497256538,968.8472248628269,966.9236124314134,967.4618062157067,967.2309031078534,969.1154515539267,969.5577257769634,968.7788628884816,967.3894314442408,968.6947157221205,970.3473578610602,971.1736789305301,970.586839465265,968.7934197326325,968.3967098663163,967.1983549331582,969.099177466579,970.0495887332895,970.5247943666448,969.7623971833224,968.8811985916611,970.4405992958306,971.2202996479152,972.1101498239576,972.0550749119789,970.5275374559894,969.2637687279947,970.1318843639974,973.5659421819987,975.7829710909994,977.3914855454997,977.1957427727498,977.5978713863749,979.2989356931874,982.6494678465938,984.8247339232969,986.4123669616484,988.2061834808242,989.1030917404121,991.551545870206,993.2757729351031,996.6378864675515,997.8189432337758,998.9094716168879,996.954735808444,994.477367904222,993.7386839521109,993.8693419760555,994.4346709880277,993.7173354940139,992.858667747007,992.4293338735035,993.2146669367518,997.6073334683758,1000.3036667341879,1000.151833367094,995.075916683547,991.5379583417734,988.2689791708867,986.6344895854434,984.3172447927217,981.1586223963609,977.0793111981804,975.5396555990902,974.269827799545,973.6349138997725,971.3174569498863,970.1587284749431,969.5793642374715,968.2896821187358,968.6448410593679,969.822420529684,969.911210264842,968.4556051324209,966.2278025662105,965.1139012831052,965.0569506415526,966.0284753207764,965.5142376603882,963.757118830194,962.378559415097,963.1892797075485,963.0946398537742,965.0473199268871,966.0236599634436,966.5118299817218,964.7559149908609,963.3779574954305,959.6889787477153,954.3444893738576,948.1722446869288,940.5861223434645,931.7930611717322,926.8965305858661,932.948265292933,948.9741326464665,969.4870663232332,989.7435331616166,1010.8717665808083,1039.935883290404,1077.467941645202,1122.733970822601,1165.3669854113004,1199.1834927056502,1221.591746352825,1226.2958731764124,1202.1479365882062,1147.573968294103,1077.7869841470515,1014.3934920735257,973.6967460367629,958.8483730183814,958.9241865091907,962.4620932545954,962.2310466272977,959.6155233136489,957.8077616568244,957.4038808284122,957.2019404142061,957.600970207103,956.3004851035515,955.1502425517758,954.0751212758879,954.5375606379439,955.268780318972,956.634390159486,956.317195079743,955.1585975398715,953.0792987699358,952.5396493849679,953.769824692484,956.884912346242,957.442456173121,957.2212280865605,957.1106140432803,957.5553070216401,957.7776535108201,958.38882675541,958.194413377705,956.5972066888526,953.7986033444263,952.8993016722131,953.9496508361066,955.4748254180533,955.2374127090267,952.6187063545133,951.3093531772566,951.6546765886283,953.3273382943141,953.6636691471571,953.3318345735786,953.1659172867893,951.5829586433947,949.7914793216974,951.3957396608487,950.6978698304243,950.3489349152121,951.174467457606,951.5872337288031,951.7936168644015,953.3968084322007,954.6984042161004,954.3492021080501,953.6746010540251,952.3373005270125,952.1686502635063,953.0843251317531,953.5421625658765,953.2710812829382,951.6355406414691,951.3177703207346,951.6588851603673,951.8294425801837,952.4147212900918,952.2073606450459,950.1036803225229,949.5518401612615,948.2759200806307,948.1379600403154,949.0689800201577,949.0344900100788,948.5172450050394,947.2586225025198,947.6293112512599,947.3146556256299,947.157327812815,948.0786639064074,948.5393319532037,948.2696659766018,949.1348329883009,949.0674164941504,948.0337082470752,948.0168541235375,947.0084270617688,947.0042135308844,949.5021067654422,951.7510533827211,953.3755266913606,954.1877633456803,954.5938816728401,955.29694083642,957.1484704182101,961.074235209105,963.5371176045526,964.2685588022763,965.6342794011382,966.3171397005691,968.1585698502845,970.5792849251422,971.2896424625711,971.6448212312855,971.8224106156428,969.9112053078213,970.4556026539107,972.2278013269554,975.1139006634777,976.5569503317388,977.2784751658694,976.1392375829347,975.0696187914673,974.5348093957336,975.2674046978668,975.6337023489334,974.8168511744667,973.4084255872333,973.7042127936166,975.3521063968083,977.6760531984041,978.3380265992021,976.669013299601,974.8345066498005,973.9172533249002,973.4586266624501,972.7293133312251,972.8646566656125,970.4323283328063,968.2161641664031,969.1080820832016,969.5540410416008,972.7770205208004,972.8885102604002,970.9442551302001,969.9721275651,969.98606378255,969.993031891275,970.4965159456375,970.2482579728187,969.6241289864093,968.8120644932046,967.9060322466023,967.9530161233012,967.9765080616505,966.4882540308253,963.7441270154127,961.8720635077063,961.9360317538532,963.4680158769265,963.7340079384633,964.3670039692316,965.1835019846158,962.5917509923079,961.2958754961539,960.647937748077,960.3239688740384,961.6619844370192,961.8309922185097,961.4154961092548,961.7077480546275,962.8538740273137,963.4269370136569,963.7134685068285,961.8567342534143,959.4283671267071,959.2141835633536,961.1070917816768,961.5535458908384,961.7767729454192,961.3883864727096,960.6941932363547,961.3470966181774,962.6735483090887,963.8367741545444,963.9183870772722,962.4591935386361,962.229596769318,961.614798384659,960.8073991923295,962.9036995961648,962.9518497980823,962.4759248990412,961.2379624495206,961.6189812247603,963.3094906123802,965.6547453061901,966.827372653095,967.9136863265476,969.4568431632738,970.7284215816369,974.3642107908184,976.6821053954093,978.8410526977046,978.4205263488523,978.2102631744261,979.605131587213,981.3025657936065,984.6512828968032,985.8256414484016,985.4128207242009,984.2064103621004,984.6032051810503,984.3016025905251,985.1508012952626,983.5754006476313,981.7877003238157,980.3938501619078,982.6969250809539,983.8484625404769,984.9242312702385,984.4621156351193,984.2310578175596,985.6155289087799,987.8077644543899,989.903882227195,989.4519411135975,985.7259705567988,981.8629852783994,977.4314926391996,974.2157463195998,970.6078731598,968.3039365799,967.15196828995,964.075984144975,961.5379920724874,960.2689960362437,960.1344980181218,960.0672490090609,959.5336245045305,957.7668122522653,955.8834061261326,955.4417030630664,955.2208515315332,956.6104257657666,957.3052128828833,958.1526064414417,957.0763032207208,956.5381516103604,956.2690758051801,957.6345379025901,957.8172689512951,957.4086344756475,956.2043172378237,956.1021586189119,957.0510793094559,958.5255396547279,959.262769827364,958.631384913682,956.815692456841,954.4078462284206,950.2039231142103,946.1019615571051,940.0509807785526,934.5254903892762,927.2627451946381,920.1313725973191,918.0656862986596,925.0328431493298,943.016421574665,966.5082107873325,996.2541053936662,1035.127052696833,1081.5635263484164,1129.7817631742082,1170.890881587104,1194.945440793552,1192.472720396776,1157.236360198388,1097.118180099194,1033.059090049597,982.5295450247985,952.7647725123993,939.3823862561997,937.1911931280998,940.5955965640499,942.7977982820249,942.3988991410124,943.6994495705062,942.3497247852531,943.1748623926266,943.5874311963132,943.7937155981566,943.3968577990784,941.1984288995392,940.0992144497695,940.5496072248848,940.7748036124424,942.8874018062212,943.4437009031105,943.2218504515553,944.1109252257777,943.5554626128888,944.2777313064444,944.1388656532222,944.5694328266111,942.7847164133055,940.8923582066527,941.4461791033264,942.7230895516632,942.8615447758316,942.9307723879158,941.9653861939579,940.4826930969789,940.2413465484894,941.1206732742447,941.0603366371224,941.0301683185612,939.5150841592806,937.2575420796403,938.1287710398201,937.56438551991,938.782192759955,939.3910963799775,938.6955481899888,937.3477740949944,938.1738870474971,939.5869435237486,941.7934717618743,941.8967358809372,940.9483679404686,939.9741839702343,939.9870919851171,940.9935459925586,941.4967729962793,940.7483864981397,939.8741932490698,938.4370966245349,938.2185483122674,938.1092741561338,939.5546370780669,939.2773185390334,939.1386592695167,937.5693296347583,938.2846648173792,939.6423324086895,940.8211662043448,940.9105831021724,940.4552915510862,937.7276457755431,936.3638228877716,938.1819114438858,939.0909557219429,939.0454778609715,937.5227389304857,936.7613694652429,935.8806847326214,936.9403423663107,936.4701711831553,934.7350855915777,932.8675427957888,931.4337713978944,931.2168856989472,933.1084428494736,932.5542214247369,931.7771107123684,930.8885553561843,929.4442776780921,928.722138839046,929.361069419523,931.6805347097616,931.8402673548808,932.4201336774404,933.2100668387202,936.6050334193601,940.80251670968,944.90125835484,946.4506291774201,949.22531458871,950.612657294355,953.3063286471775,957.1531643235887,961.0765821617944,963.0382910808971,964.5191455404486,964.2595727702243,965.6297863851121,966.814893192556,969.4074465962781,971.203723298139,971.6018616490695,971.8009308245348,972.4004654122674,973.2002327061336,975.1001163530668,976.0500581765334,977.0250290882667,976.0125145441334,976.5062572720667,978.2531286360334,979.1265643180167,977.5632821590084,976.2816410795042,975.6408205397521,975.320410269876,976.660205134938,977.330102567469,976.6650512837346,974.8325256418673,973.9162628209336,972.9581314104669,973.9790657052334,974.4895328526168,974.2447664263084,972.6223832131542,972.311191606577,972.6555958032885,973.3277979016443,973.6638989508222,973.8319494754111,972.9159747377055,971.9579873688527,970.9789936844263,970.9894968422132,971.9947484211066,970.9973742105533,970.9986871052766,968.9993435526383,969.9996717763191,971.4998358881596,972.7499179440798,971.8749589720398,970.4374794860199,969.71873974301,969.859369871505,967.9296849357524,967.4648424678762,967.2324212339381,966.116210616969,965.0581053084845,964.5290526542423,965.7645263271211,967.8822631635605,967.9411315817803,966.9705657908901,964.985282895445,965.4926414477225,966.2463207238612,967.6231603619306,967.8115801809653,966.9057900904827,965.9528950452413,965.9764475226207,966.9882237613103,967.4941118806552,967.2470559403275,968.1235279701638,968.0617639850818,969.0308819925409,970.0154409962704,970.5077204981352,970.2538602490677,970.6269301245338,969.8134650622669,968.9067325311335,968.9533662655667,969.9766831327834,971.4883415663917,970.2441707831958,969.1220853915979,971.561042695799,973.7805213478995,975.3902606739498,977.1951303369749,977.0975651684874,976.0487825842438,978.0243912921219,980.512195646061,982.7560978230305,984.8780489115152,984.9390244557576,984.9695122278788,986.4847561139394,989.7423780569698,991.8711890284849,993.9355945142424,994.4677972571212,994.2338986285606,994.6169493142803,994.8084746571401,994.40423732857,993.7021186642851,992.3510593321425,990.6755296660713,991.3377648330356,993.6688824165178,994.8344412082589,992.9172206041294,990.4586103020647,990.2293051510323,992.1146525755162,996.0573262877581,1000.528663143879,1000.7643315719395,996.8821657859697,989.9410828929849,985.9705414464925,982.9852707232462,981.4926353616231,978.7463176808116,974.3731588404057,969.6865794202029,968.3432897101014,968.1716448550508,968.0858224275254,968.5429112137626,968.2714556068813,966.1357278034407,966.5678639017203,967.2839319508602,967.1419659754301,966.5709829877151,966.2854914938575,964.1427457469288,962.5713728734644,962.2856864367322,962.6428432183661,963.3214216091831,963.1607108045915,962.5803554022957,961.2901777011479,962.645088850574,964.322544425287,963.6612722126436,962.3306361063218,959.165318053161,956.5826590265805,952.2913295132903,947.6456647566451,944.3228323783226,937.6614161891613,930.3307080945806,928.1653540472903,934.0826770236451,952.0413385118226,977.0206692559113,1004.5103346279557,1038.7551673139778,1084.377583656989,1134.1887918284945,1182.0943959142473,1218.5471979571237,1239.273598978562,1237.636799489281,1206.3183997446404,1147.6591998723202,1078.82959993616,1016.41479996808,973.70739998404,952.85369999202,948.42684999601,950.2134249980049,954.1067124990025,956.0533562495012,954.5266781247506,952.7633390623753,953.8816695311876,954.4408347655938,955.2204173827969,955.6102086913984,954.3051043456992,953.1525521728496,952.5762760864247,951.7881380432124,953.3940690216061,953.1970345108031,951.5985172554015,949.7992586277007,950.8996293138504,952.4498146569251,952.7249073284626,951.8624536642312,950.9312268321156,949.9656134160577,950.4828067080289,949.7414033540144,949.8707016770072,951.4353508385036,950.2176754192518,949.108837709626,948.554418854813,948.7772094274064,950.3886047137032,951.1943023568516,951.5971511784257,951.2985755892129,950.6492877946064,951.3246438973032,952.1623219486517,952.5811609743258,953.290580487163,952.1452902435815,952.5726451217907,952.7863225608953,953.8931612804477,954.4465806402238,953.7232903201119,951.361645160056,950.680822580028,950.840411290014,952.420205645007,951.7101028225035,950.8550514112517,949.9275257056258,949.9637628528129,950.4818814264065,951.7409407132033,949.8704703566016,948.4352351783008,946.7176175891504,947.3588087945752,948.1794043972876,949.5897021986439,949.2948510993219,948.147425549661,948.0737127748305,949.5368563874152,950.7684281937077,953.3842140968538,953.1921070484269,952.5960535242134,951.2980267621067,950.1490133810534,951.0745066905267,952.5372533452634,951.7686266726316,950.8843133363158,947.9421566681578,948.9710783340789,949.4855391670394,949.7427695835197,949.8713847917599,948.4356923958799,947.7178461979399,947.35892309897,948.179461549485,948.5897307747425,949.2948653873713,948.6474326936857,948.8237163468428,949.9118581734215,950.9559290867107,952.9779645433554,954.4889822716777,955.2444911358389,956.1222455679194,958.5611227839597,961.2805613919799,964.14028069599,967.570140347995,969.7850701739975,971.3925350869988,972.6962675434994,975.3481337717496,977.1740668858748,978.5870334429374,978.2935167214687,977.6467583607343,978.3233791803672,979.1616895901836,978.5808447950918,979.7904223975459,979.3952111987729,978.1976055993864,979.5988027996932,979.7994013998466,980.8997006999233,980.4498503499617,980.2249251749809,979.1124625874904,978.5562312937452,979.7781156468726,981.8890578234364,981.9445289117182,980.9722644558591,980.4861322279296,979.7430661139648,980.3715330569823,980.6857665284912,981.3428832642455,979.6714416321228,978.3357208160614,977.6678604080307,977.3339302040154,977.6669651020077,979.3334825510038,977.6667412755019,975.8333706377509,973.4166853188755,975.2083426594377,976.6041713297188,976.3020856648594,975.6510428324298,973.8255214162149,975.4127607081075,974.7063803540537,976.3531901770268,977.6765950885134,975.8382975442566,975.4191487721283,975.7095743860641,975.854787193032,975.927393596516,975.9636967982581,974.481848399129,972.7409241995645,971.8704620997822,972.4352310498912,973.2176155249456,972.1088077624728,970.5544038812363,968.7772019406182,968.8886009703091,969.9443004851546,970.4721502425773,969.2360751212886,968.1180375606443,966.0590187803222,965.5295093901611,966.7647546950806,967.3823773475403,968.1911886737702,967.5955943368851,966.7977971684426,967.3988985842213,968.1994492921107,969.5997246460554,970.2998623230277,970.6499311615139,969.824965580757,968.9124827903785,969.4562413951892,969.2281206975946,971.1140603487972,972.0570301743986,972.0285150871994,973.5142575435997,976.2571287717999,978.6285643859,980.81428219295,981.407141096475,981.2035705482375,982.1017852741188,983.5508926370594,983.7754463185297,984.3877231592649,985.6938615796324,986.3469307898163,988.6734653949081,990.8367326974541,993.918366348727,994.9591831743635,996.4795915871817,995.2397957935909,995.6198978967955,995.3099489483977,996.1549744741989,995.0774872370994,994.5387436185497,994.2693718092748,995.6346859046374,995.3173429523188,997.1586714761594,1000.0793357380796,1001.0396678690398,998.51983393452,993.25991696726,989.1299584836299,985.564979241815,983.2824896209074,980.1412448104537,977.5706224052269,974.2853112026135,972.1426556013067,971.5713278006533,970.7856639003267,969.8928319501633,969.4464159750817,968.7232079875408,969.8616039937704,970.4308019968852,970.2154009984426,968.6077004992213,966.8038502496106,966.9019251248053,966.9509625624027,967.4754812812014,966.7377406406007,966.8688703203004,964.4344351601502,964.2172175800752,965.1086087900376,965.0543043950188,964.0271521975094,962.5135760987547,961.7567880493773,962.3783940246886,960.1891970123443,956.5945985061721,950.7972992530861,945.898649626543,942.4493248132715,939.7246624066357,934.8623312033178,927.4311656016589,920.7155828008295,918.8577914004147,921.4288957002074,934.2144478501036,954.1072239250518,979.0536119625259,1009.5268059812629,1047.7634029906314,1094.8817014953156,1145.4408507476578,1189.220425373829,1217.6102126869146,1221.8051063434573,1194.4025531717286,1135.7012765858644,1066.3506382929322,1006.6753191464661,971.837659573233,956.9188297866165,954.4594148933082,954.7297074466542,956.3648537233271,957.6824268616635,957.8412134308318,958.4206067154159,957.710303357708,954.355151678854,953.6775758394269,955.3387879197135,956.6693939598567,955.8346969799284,955.4173484899642,955.2086742449821,954.6043371224911,954.3021685612455,954.6510842806227,954.8255421403114,953.4127710701557,953.7063855350779,954.353192767539,954.6765963837695,955.3382981918847,955.1691490959424,955.0845745479712,954.0422872739856,954.5211436369927,954.7605718184964,955.8802859092482,955.9401429546241,955.4700714773121,954.735035738656,954.367517869328,955.183758934664,956.091879467332,956.045939733666,957.522969866833,957.2614849334166,957.1307424667083,958.5653712333542,959.2826856166771,959.1413428083385,958.0706714041693,957.0353357020847,955.5176678510423,955.7588339255212,956.8794169627606,957.4397084813803,955.7198542406902,954.8599271203451,954.4299635601726,954.7149817800863,955.8574908900432,955.4287454450216,954.2143727225108,951.1071863612553,951.0535931806277,952.0267965903138,954.0133982951569,955.0066991475785,953.5033495737893,953.2516747868947,953.6258373934473,954.3129186967237,956.1564593483619,956.0782296741809,955.0391148370904,953.5195574185452,952.2597787092726,953.1298893546364,953.5649446773182,952.7824723386591,952.3912361693295,951.6956180846648,951.8478090423324,952.4239045211662,952.7119522605831,953.3559761302915,953.1779880651458,951.0889940325728,950.5444970162864,951.2722485081432,953.6361242540715,954.3180621270358,954.1590310635179,952.579515531759,952.2897577658795,953.6448788829398,954.3224394414699,954.161219720735,954.0806098603675,953.5403049301838,954.2701524650919,955.135076232546,958.067538116273,960.0337690581365,961.0168845290682,962.0084422645341,964.504221132267,968.2521105661335,972.1260552830668,974.5630276415334,975.2815138207667,975.6407569103833,977.3203784551916,978.1601892275958,979.5800946137979,979.7900473068989,980.3950236534495,980.1975118267247,980.0987559133623,981.0493779566812,982.5246889783406,982.2623444891703,983.1311722445852,981.5655861222926,981.2827930611463,982.1413965305732,982.5706982652866,982.2853491326433,981.6426745663216,979.8213372831608,980.4106686415804,982.2053343207901,983.1026671603951,984.0513335801975,983.5256667900987,982.7628333950494,982.8814166975246,982.4407083487623,982.7203541743811,983.3601770871906,983.1800885435953,981.5900442717976,980.2950221358988,980.6475110679494,979.8237555339747,979.9118777669873,979.9559388834937,977.9779694417468,976.4889847208734,977.2444923604367,978.1222461802183,978.5611230901092,979.2805615450545,977.6402807725273,976.3201403862636,975.6600701931318,976.3300350965659,977.165017548283,976.0825087741415,975.0412543870707,974.5206271935353,974.7603135967677,974.8801567983838,974.9400783991919,974.9700391995959,973.985019599798,974.4925097998989,974.2462548999495,974.6231274499747,974.3115637249873,974.1557818624937,973.5778909312469,972.2889454656234,971.1444727328117,972.5722363664058,971.2861181832029,971.1430590916015,969.5715295458008,968.7857647729004,969.8928823864502,971.4464411932252,972.2232205966126,971.1116102983062,970.5558051491531,970.2779025745765,971.1389512872883,972.0694756436442,973.0347378218221,971.017368910911,970.0086844554555,970.5043422277278,971.2521711138638,972.1260855569319,972.563042778466,971.7815213892329,971.3907606946165,971.6953803473082,971.3476901736541,972.173845086827,973.0869225434135,973.0434612717067,973.5217306358534,973.7608653179267,974.8804326589634,976.4402163294817,978.2201081647409,978.6100540823704,978.8050270411852,979.9025135205926,981.9512567602962,985.4756283801481,987.737814190074,988.368907095037,987.1844535475185,986.5922267737592,987.7961133868796,989.8980566934398,991.9490283467198,994.4745141733599,994.73725708668,995.86862854334,997.93431427167,997.967157135835,997.9835785679174,995.9917892839587,993.9958946419794,992.9979473209896,993.9989736604948,995.4994868302474,996.2497434151237,995.1248717075619,993.5624358537809,994.7812179268905,998.8906089634452,1001.9453044817226,1002.4726522408613,998.2363261204307,991.6181630602154,986.8090815301077,984.4045407650539,983.7022703825269,981.3511351912634,977.1755675956317,974.0877837978159,971.543891898908,970.271945949454,969.635972974727,968.3179864873634,968.1589932436817,967.0794966218409,966.0397483109205,966.0198741554602,967.0099370777301,967.5049685388651,966.7524842694326,966.3762421347162,966.1881210673581,966.0940605336791,967.0470302668396,966.5235151334198,966.7617575667099,965.880878783355,964.9404393916775,964.9702196958388,964.9851098479194,964.9925549239597,962.4962774619798,958.2481387309899,955.124069365495,952.0620346827475,949.0310173413737,947.0155086706868,944.5077543353434,942.7538771676717,941.3769385838359,935.688469291918,927.844234645959,921.4221173229795,921.7110586614897,931.8555293307448,952.4277646653725,978.7138823326862,1011.8569411663432,1055.9284705831715,1106.4642352915857,1152.2321176457929,1185.1160588228963,1195.5580294114482,1172.779014705724,1116.389507352862,1049.694753676431,992.3473768382155,959.6736884191077,949.8368442095539,951.4184221047769,953.7092110523885,952.3546055261943,949.6773027630971,949.3386513815485,950.6693256907743,952.3346628453871,953.6673314226936,954.3336657113468,952.6668328556734,950.8334164278367,950.9167082139184,951.4583541069592,951.2291770534796,951.1145885267398,951.0572942633698,951.0286471316849,952.5143235658425,954.2571617829212,954.1285808914606,952.5642904457303,951.7821452228652,951.3910726114326,951.6955363057164,950.8477681528582,949.9238840764291,948.9619420382146,948.4809710191073,947.7404855095537,948.8702427547769,951.4351213773884,951.7175606886942,950.8587803443471,949.4293901721735,949.7146950860867,950.8573475430434,953.9286737715217,953.4643368857609,952.7321684428805,950.3660842214402,950.6830421107202,951.3415210553601,951.67076052768,952.3353802638401,950.16769013192,948.5838450659601,948.79192253298,949.3959612664901,949.697980633245,948.8489903166226,947.9244951583113,946.4622475791557,946.7311237895779,948.3655618947889,950.1827809473945,951.0913904736972,951.0456952368486,950.0228476184243,949.5114238092121,950.2557119046061,951.627855952303,951.8139279761515,951.4069639880757,950.7034819940379,951.351740997019,951.6758704985095,952.8379352492548,953.4189676246274,952.7094838123137,951.8547419061568,952.9273709530785,953.4636854765392,952.7318427382696,953.3659213691349,952.1829606845674,950.5914803422837,950.2957401711419,949.647870085571,949.3239350427855,948.1619675213927,946.0809837606964,944.5404918803482,943.7702459401742,944.8851229700871,944.9425614850436,945.9712807425218,945.9856403712608,944.9928201856304,943.9964100928153,944.9982050464076,946.9991025232039,947.9995512616019,948.499775630801,948.7498878154005,950.3749439077003,952.6874719538501,956.343735976925,958.6718679884625,959.8359339942313,960.4179669971156,961.2089834985578,963.6044917492788,965.8022458746394,967.4011229373198,967.2005614686599,967.10028073433,968.050140367165,971.5250701835826,971.7625350917913,971.8812675458956,971.4406337729479,971.7203168864739,971.860158443237,973.4300792216185,975.7150396108093,976.3575198054046,975.1787599027023,974.5893799513511,974.7946899756755,975.3973449878378,977.1986724939188,977.5993362469594,976.7996681234797,974.8998340617399,974.44991703087,974.224958515435,975.1124792577175,974.5562396288587,973.2781198144294,972.1390599072147,971.5695299536073,973.2847649768037,975.1423824884018,975.5711912442009,974.2855956221005,972.6427978110503,970.8213989055251,970.9106994527626,971.4553497263813,971.2276748631907,971.1138374315954,969.5569187157977,969.7784593578988,970.3892296789494,971.1946148394748,971.5973074197374,971.7986537098686,970.8993268549343,968.9496634274672,968.9748317137336,967.9874158568668,967.9937079284334,966.4968539642167,965.2484269821084,966.1242134910542,967.0621067455271,967.0310533727636,966.0155266863818,964.0077633431908,962.0038816715954,962.0019408357978,963.0009704178989,963.5004852089494,963.7502426044747,962.8751213022374,961.9375606511187,961.4687803255594,962.2343901627796,963.1171950813898,964.0585975406949,962.5292987703474,961.2646493851737,962.1323246925868,964.0661623462934,965.0330811731467,964.0165405865733,962.5082702932866,960.7541351466433,961.3770675733217,961.6885337866609,963.8442668933304,963.4221334466652,962.7110667233326,959.3555333616663,958.6777666808332,959.8388833404166,960.9194416702082,961.9597208351041,961.9798604175521,960.9899302087761,961.994965104388,963.497482552194,964.248741276097,964.6243706380485,964.8121853190243,963.9060926595121,963.953046329756,964.976523164878,965.988261582439,966.4941307912195,965.2470653956098,963.6235326978049,964.3117663489024,964.6558831744512,966.8279415872256,967.9139707936129,967.4569853968064,967.2284926984032,967.1142463492016,968.5571231746007,970.7785615873004,972.8892807936502,973.9446403968251,973.4723201984125,973.7361600992062,975.8680800496031,977.9340400248016,979.9670200124008,981.9835100062004,982.4917550031003,983.2458775015501,984.6229387507751,985.3114693753876,984.6557346876938,984.327867343847,982.6639336719235,982.3319668359618,982.1659834179809,981.5829917089904,982.7914958544952,982.3957479272476,980.6978739636238,979.8489369818119,980.424468490906,982.7122342454529,985.8561171227265,984.9280585613633,980.9640292806816,978.9820146403408,975.9910073201704,974.4955036600852,971.7477518300426,967.8738759150212,964.4369379575106,962.7184689787553,960.8592344893776,959.4296172446889,958.2148086223444,957.1074043111722,957.053702155586,957.026851077793,956.5134255388965,957.7567127694483,957.8783563847242,956.4391781923621,953.719589096181,952.8597945480906,952.9298972740453,953.9649486370226,956.4824743185113,955.7412371592557,955.3706185796278,953.6853092898139,954.3426546449069,954.6713273224534,954.3356636612267,953.6678318306133,952.8339159153066,953.9169579576533,955.4584789788266,956.7292394894133,956.8646197447067,954.4323098723534,949.7161549361767,945.3580774680884,938.6790387340442,936.8395193670221,931.4197596835111,924.2098798417555,919.6049399208778,923.8024699604389,938.4012349802194,960.2006174901097,988.6003087450549,1024.8001543725275,1068.4000771862638,1117.200038593132,1157.600019296566,1181.3000096482829,1180.1500048241414,1147.5750024120707,1091.2875012060354,1031.1437506030177,982.0718753015088,953.5359376507545,940.7679688253772,936.8839844126886,936.4419922063444,938.7209961031722,941.3604980515861,942.680249025793,943.3401245128965,942.1700622564483,941.0850311282242,941.0425155641121,942.5212577820561,943.7606288910281,944.380314445514,944.1901572227571,942.5950786113785,941.2975393056893,941.1487696528446,942.5743848264224,942.2871924132112,942.1435962066056,940.5717981033029,939.2858990516514,941.1429495258258,941.0714747629129,942.0357373814564,941.5178686907282,940.7589343453641,941.3794671726821,942.689733586341,944.8448667931705,945.4224333965852,944.2112166982927,942.1056083491463,943.5528041745731,945.2764020872866,945.1382010436432,944.5691005218216,943.7845502609108,941.8922751304553,941.4461375652277,942.2230687826138,943.1115343913069,943.5557671956535,942.2778835978268,940.1389417989134,940.0694708994567,941.0347354497284,942.0173677248642,942.0086838624321,941.004341931216,939.502170965608,939.251085482804,938.625542741402,939.8127713707011,940.4063856853505,940.2031928426752,938.1015964213376,938.5507982106687,939.7753991053344,940.8876995526672,939.9438497763335,939.9719248881668,939.9859624440834,939.9929812220416,940.4964906110208,941.2482453055104,941.1241226527552,941.0620613263776,939.5310306631889,938.7655153315944,938.8827576657973,939.9413788328986,938.9706894164493,936.9853447082246,934.9926723541123,934.9963361770562,935.498168088528,934.249084044264,934.124542022132,933.5622710110661,931.281135505533,930.1405677527665,930.5702838763832,930.2851419381916,930.1425709690958,928.5712854845478,927.2856427422739,927.142821371137,928.0714106855685,930.0357053427842,930.0178526713921,930.0089263356961,929.004463167848,929.502231583924,931.751115791962,934.375557895981,935.1877789479905,934.5938894739952,934.7969447369976,934.8984723684988,936.9492361842495,940.4746180921247,943.2373090460624,944.6186545230312,946.8093272615156,949.9046636307578,953.4523318153789,955.7261659076894,957.3630829538447,959.6815414769223,960.8407707384612,962.4203853692306,964.2101926846153,966.6050963423077,967.3025481711538,967.6512740855769,966.8256370427885,967.4128185213942,968.7064092606971,970.8532046303485,971.4266023151743,970.2133011575871,970.1066505787935,971.0533252893968,972.0266626446984,973.5133313223491,973.7566656611746,973.8783328305873,972.4391664152936,971.2195832076468,972.6097916038234,974.3048958019117,975.1524479009558,974.0762239504779,972.538111975239,970.2690559876195,970.6345279938098,971.8172639969049,971.9086319984524,970.4543159992262,968.7271579996132,968.3635789998066,969.1817894999033,969.5908947499516,968.7954473749758,968.3977236874879,967.698861843744,967.849430921872,968.924715460936,970.962357730468,970.981178865234,969.9905894326171,968.9952947163085,968.4976473581543,968.7488236790771,969.8744118395385,969.4372059197692,969.7186029598846,968.8593014799424,966.4296507399712,966.7148253699856,967.3574126849928,967.6787063424964,967.3393531712481,966.1696765856241,967.084838292812,968.042419146406,968.021209573203,968.0106047866016,967.5053023933008,966.7526511966504,964.3763255983251,965.1881627991626,966.5940813995812,967.2970406997906,966.6485203498953,965.8242601749477,966.4121300874738,968.7060650437369,968.3530325218685,968.1765162609342,966.5882581304671,966.7941290652336,966.3970645326168,968.1985322663083,968.5992661331542,969.2996330665771,968.1498165332886,967.0749082666443,967.0374541333222,967.0187270666611,968.0093635333305,968.5046817666653,968.7523408833326,968.3761704416663,968.6880852208332,970.8440426104166,972.4220213052083,972.7110106526042,972.3555053263021,972.1777526631511,972.0888763315755,974.0444381657878,976.0222190828939,977.011109541447,977.0055547707235,975.5027773853617,976.2513886926808,978.1256943463404,980.5628471731702,982.7814235865851,982.8907117932926,982.4453558966463,983.2226779483232,986.6113389741615,988.3056694870808,990.1528347435403,991.0764173717702,990.5382086858851,991.7691043429426,993.3845521714713,995.1922760857357,994.5961380428678,992.2980690214339,989.649034510717,990.8245172553585,990.9122586276792,991.9561293138396,992.4780646569197,993.7390323284599,993.3695161642299,995.184758082115,999.0923790410575,1002.0461895205287,1000.5230947602644,994.7615473801322,988.8807736900661,985.4403868450331,984.2201934225166,983.1100967112583,980.5550483556292,977.7775241778146,974.3887620889072,972.1943810444536,970.5971905222268,969.2985952611134,969.1492976305567,969.0746488152784,968.0373244076392,968.0186622038195,968.0093311019098,968.5046655509549,967.7523327754775,966.3761663877387,965.6880831938694,964.8440415969346,965.9220207984673,966.4610103992336,967.2305051996168,966.6152525998084,964.8076262999042,963.9038131499522,964.4519065749761,965.725953287488,965.362976643744,961.6814883218719,958.340744160936,953.170372080468,949.585186040234,945.292593020117,940.1462965100585,934.0731482550293,933.5365741275147,941.7682870637573,962.8841435318786,990.4420717659393,1023.2210358829697,1064.1105179414849,1112.5552589707424,1161.777629485371,1199.8888147426856,1215.4444073713428,1197.2222036856715,1144.1111018428358,1071.0555509214178,1008.0277754607089,970.0138877303544,957.0069438651772,956.5034719325886,957.7517359662943,957.8758679831471,956.4379339915736,955.7189669957868,957.3594834978934,958.1797417489468,957.5898708744734,956.2949354372367,954.6474677186184,955.8237338593092,957.9118669296546,957.9559334648272,958.4779667324136,957.2389833662069,956.6194916831034,957.3097458415517,958.1548729207759,958.077436460388,957.538718230194,956.269359115097,955.6346795575485,956.8173397787742,957.908669889387,957.9543349446935,957.4771674723468,954.7385837361734,955.3692918680867,955.6846459340434,956.8423229670217,957.4211614835108,956.2105807417554,955.6052903708777,955.3026451854389,955.6513225927195,956.3256612963597,958.1628306481798,958.0814153240899,957.040707662045,957.5203538310225,958.7601769155112,959.8800884577556,960.9400442288778,959.970022114439,958.4850110572195,957.7425055286097,958.8712527643049,958.9356263821525,958.4678131910762,956.7339065955381,954.366953297769,954.6834766488845,955.8417383244423,956.9208691622212,956.9604345811106,956.4802172905553,954.7401086452776,955.3700543226388,956.1850271613193,958.0925135806597,958.5462567903298,958.7731283951649,958.3865641975824,958.1932820987912,958.5966410493957,958.7983205246978,958.3991602623489,957.6995801311745,956.8497900655873,956.4248950327936,955.7124475163969,956.3562237581984,956.1781118790992,955.5890559395496,954.7945279697748,952.3972639848873,952.6986319924437,953.3493159962218,954.6746579981109,953.8373289990554,952.4186644995277,952.2093322497639,953.604666124882,954.302333062441,955.1511665312205,955.5755832656102,955.2877916328051,956.6438958164026,958.8219479082013,961.4109739541007,964.2054869770503,965.6027434885252,965.8013717442626,968.4006858721314,971.2003429360657,974.1001714680328,975.5500857340164,977.2750428670082,978.1375214335042,978.5687607167521,980.284380358376,982.642190179188,983.321095089594,983.660547544797,982.8302737723985,983.4151368861992,984.7075684430996,986.8537842215499,987.4268921107749,987.7134460553875,985.8567230276938,985.9283615138469,987.4641807569235,988.7320903784617,988.8660451892308,988.9330225946154,987.4665112973078,986.7332556486539,986.866627824327,986.9333139121635,986.9666569560818,985.4833284780409,984.2416642390205,983.6208321195102,984.3104160597551,985.1552080298775,985.5776040149387,984.2888020074694,982.6444010037346,981.8222005018673,981.4111002509337,982.2055501254669,982.1027750627334,981.5513875313667,979.2756937656834,979.1378468828417,980.0689234414208,981.5344617207104,981.2672308603552,981.1336154301775,979.5668077150888,979.7834038575444,979.8917019287721,980.4458509643861,980.722925482193,979.3614627410965,976.6807313705483,975.8403656852742,975.9201828426371,976.4600914213186,976.7300457106593,975.8650228553297,974.4325114276648,973.7162557138324,974.3581278569162,975.6790639284582,976.3395319642291,974.6697659821145,973.3348829910573,973.1674414955287,974.0837207477643,975.0418603738822,975.0209301869411,975.0104650934705,974.5052325467352,975.2526162733676,975.1263081366837,976.0631540683419,975.5315770341709,975.7657885170854,973.8828942585427,972.4414471292714,973.2207235646357,973.6103617823178,975.3051808911589,974.1525904455794,973.5762952227897,973.7881476113948,974.8940738056974,976.4470369028487,979.2235184514243,979.6117592257121,979.8058796128561,981.4029398064281,982.701469903214,985.850734951607,987.4253674758036,988.2126837379018,988.106341868951,989.5531709344755,991.7765854672377,994.3882927336189,996.6941463668095,997.8470731834047,998.4235365917024,998.7117682958512,1000.3558841479256,1000.6779420739629,999.8389710369814,997.9194855184908,994.9597427592454,994.4798713796226,995.7399356898113,996.8699678449057,999.4349839224528,1001.2174919612264,1002.6087459806132,1003.3043729903065,1001.1521864951533,997.5760932475766,992.2880466237883,989.1440233118942,984.5720116559471,982.7860058279736,981.3930029139867,980.6965014569934,980.3482507284966,978.6741253642483,975.3370626821242,975.1685313410621,975.5842656705311,975.7921328352655,975.8960664176327,974.9480332088164,970.9740166044082,971.4870083022041,972.2435041511021,972.6217520755511,971.3108760377755,970.1554380188877,968.5777190094439,968.2888595047219,969.144429752361,970.5722148761805,971.2861074380903,970.1430537190452,968.5715268595226,967.2857634297613,968.1428817148807,969.0714408574404,968.5357204287202,965.7678602143601,960.38393010718,953.69196505359,949.3459825267951,945.1729912633975,936.5864956316988,929.2932478158493,928.1466239079247,936.0733119539623,951.5366559769811,971.7683279884906,990.8841639942452,1007.9420819971226,1028.9710409985614,1060.9855204992807,1104.4927602496405,1150.2463801248202,1190.6231900624102,1217.3115950312051,1222.1557975156024,1196.5778987578012,1141.7889493789007,1074.3944746894504,1013.1972373447252,974.5986186723626,956.7993093361813,955.8996546680906,958.9498273340453,961.4749136670226,961.2374568335113,960.1187284167556,958.5593642083778,958.2796821041889,959.1398410520944,960.0699205260472,961.0349602630235,960.5174801315118,959.7587400657559,958.8793700328779,959.939685016439,961.4698425082195,960.2349212541097,960.1174606270549,958.0587303135275,956.5293651567638,957.2646825783819,957.6323412891909,958.8161706445954,958.4080853222977,956.7040426611488,956.8520213305744,958.4260106652872,959.2130053326437,960.1065026663218,960.0532513331609,956.0266256665805,955.5133128332902,955.7566564166451,958.3783282083225,959.6891641041613,960.3445820520806,960.6722910260403,961.3361455130201,962.1680727565101,963.5840363782551,964.2920181891275,963.1460090945637,962.0730045472819,962.036502273641,962.5182511368205,962.2591255684102,961.1295627842051,959.5647813921025,958.2823906960513,958.1411953480256,959.0705976740128,960.0352988370064,960.0176494185032,959.5088247092516,957.7544123546259,956.8772061773129,957.9386030886565,959.4693015443282,959.7346507721641,958.367325386082,957.683662693041,957.3418313465205,958.1709156732602,959.0854578366301,960.5427289183151,959.7713644591576,958.3856822295788,959.1928411147894,958.0964205573947,958.5482102786973,958.7741051393486,956.8870525696743,955.4435262848372,955.7217631424186,957.3608815712093,958.6804407856047,958.8402203928024,956.9201101964012,955.4600550982007,955.2300275491003,954.6150137745501,956.307506887275,957.1537534436375,956.5768767218187,955.7884383609094,957.3942191804547,959.1971095902273,961.5985547951136,962.2992773975568,963.6496386987784,965.3248193493891,966.6624096746946,969.8312048373473,972.9156024186736,974.9578012093368,975.9789006046684,976.4894503023343,976.7447251511671,978.3723625755836,979.6861812877918,981.843090643896,981.921545321948,980.460772660974,979.730386330487,981.3651931652435,982.6825965826217,983.3412982913109,984.1706491456555,983.0853245728277,982.0426622864138,984.0213311432069,984.5106655716035,984.7553327858018,984.3776663929009,982.6888331964504,983.3444165982253,983.6722082991126,983.8361041495564,984.9180520747782,983.9590260373891,982.4795130186945,981.2397565093472,981.6198782546736,982.8099391273367,981.9049695636684,980.9524847818342,978.4762423909172,976.7381211954586,977.8690605977292,979.4345302988646,979.2172651494323,979.1086325747161,978.554316287358,978.777158143679,978.8885790718396,980.4442895359198,980.2221447679599,979.61107238398,977.80553619199,977.402768095995,977.7013840479975,977.3506920239988,978.6753460119994,977.3376730059997,974.6688365029999,972.3344182515,973.16720912575,974.583604562875,974.2918022814375,973.6459011407187,971.3229505703594,969.6614752851797,969.3307376425898,969.6653688212949,971.3326844106475,970.1663422053238,969.5831711026619,969.291585551331,970.1457927756655,971.0728963878328,972.0364481939164,972.0182240969582,971.5091120484791,972.7545560242395,972.8772780121197,973.4386390060599,972.71931950303,972.359659751515,971.1798298757575,970.5899149378788,971.7949574689394,972.8974787344697,974.4487393672348,973.2243696836174,971.6121848418087,971.8060924209044,972.9030462104522,975.4515231052261,976.725761552613,975.8628807763065,974.9314403881533,976.4657201940767,979.7328600970384,982.8664300485192,984.4332150242597,985.7166075121298,986.358303756065,987.6791518780325,989.8395759390162,991.4197879695081,992.209893984754,992.104946992377,993.0524734961884,995.0262367480942,997.513118374047,999.2565591870235,1000.6282795935117,998.8141397967559,996.9070698983779,994.9535349491889,993.9767674745945,993.9883837372972,993.9941918686486,994.4970959343243,993.7485479671622,994.8742739835811,997.4371369917906,1001.7185684958953,1005.3592842479477,1005.1796421239738,1001.5898210619869,997.7949105309934,993.3974552654968,991.6987276327484,990.3493638163742,987.674681908187,984.3373409540935,980.6686704770468,978.8343352385234,976.9171676192617,974.4585838096309,970.7292919048155,967.8646459524077,966.9323229762039,967.466161488102,967.733080744051,968.8665403720255,967.4332701860128,967.2166350930064,965.1083175465033,965.0541587732516,966.0270793866258,965.5135396933129,965.2567698466564,964.1283849233282,963.5641924616641,963.782096230832,964.891048115416,965.945524057708,964.972762028854,963.986381014427,962.4931905072135,960.7465952536068,958.8732976268034,952.9366488134017,947.9683244067008,942.9841622033505,938.9920811016752,932.9960405508376,924.9980202754189,919.4990101377094,918.7495050688547,925.3747525344273,940.1873762672137,961.0936881336069,987.5468440668035,1019.7734220334017,1058.386711016701,1103.1933555083506,1146.5966777541753,1179.7983388770876,1190.3991694385438,1172.699584719272,1124.849792359636,1059.424896179818,1002.212448089909,967.6062240449545,953.8031120224773,952.4015560112387,954.7007780056193,953.8503890028096,952.9251945014048,953.4625972507024,954.7312986253512,955.3656493126756,954.1828246563377,952.5914123281689,952.2957061640844,953.6478530820423,953.3239265410211,954.1619632705106,953.5809816352553,953.2904908176276,952.6452454088138,952.822622704407,953.9113113522035,953.9556556761017,953.9778278380509,951.9889139190254,952.4944569595127,954.2472284797564,955.6236142398782,955.3118071199391,953.1559035599696,951.5779517799848,949.7889758899923,950.3944879449962,950.6972439724981,951.3486219862491,952.1743109931245,951.0871554965622,952.5435777482811,953.2717888741406,954.6358944370703,955.3179472185352,955.6589736092676,955.3294868046338,953.6647434023168,954.3323717011584,954.6661858505793,954.8330929252896,954.9165464626449,952.9582732313224,952.4791366156612,951.2395683078306,951.6197841539154,952.3098920769577,951.1549460384788,949.0774730192394,948.5387365096196,949.2693682548098,950.1346841274049,949.5673420637024,949.2836710318512,948.1418355159255,947.0709177579628,947.5354588789814,948.7677294394907,950.3838647197454,951.1919323598727,950.5959661799363,950.2979830899682,951.148991544984,952.574495772492,952.287247886246,950.643623943123,949.3218119715615,949.1609059857808,947.5804529928904,947.2902264964453,947.1451132482226,946.0725566241113,943.5362783120556,943.2681391560278,943.6340695780139,944.8170347890069,945.9085173945034,945.9542586972517,944.4771293486258,944.7385646743129,946.3692823371564,947.6846411685782,949.8423205842892,951.9211602921446,952.9605801460723,953.9802900730361,955.490145036518,957.745072518259,959.8725362591294,960.4362681295647,960.7181340647824,960.8590670323912,962.4295335161955,964.2147667580978,965.1073833790489,964.5536916895244,964.7768458447622,966.3884229223811,967.6942114611905,969.8471057305953,971.4235528652977,971.2117764326488,970.6058882163244,969.8029441081621,971.4014720540811,973.2007360270405,974.1003680135202,974.0501840067601,972.52509200338,972.76254600169,974.881273000845,975.4406365004224,976.2203182502112,973.6101591251056,971.8050795625528,970.4025397812763,971.7012698906382,973.3506349453191,973.1753174726596,971.5876587363298,969.7938293681649,968.8969146840825,968.9484573420413,968.9742286710207,968.9871143355103,966.4935571677552,965.7467785838776,966.3733892919388,968.6866946459694,969.8433473229848,970.9216736614924,969.4608368307462,967.2304184153732,965.6152092076866,965.8076046038433,966.9038023019216,966.9519011509608,965.4759505754804,963.7379752877403,961.3689876438701,961.6844938219351,962.8422469109676,962.9211234554838,962.4605617277418,960.7302808638709,960.3651404319355,961.1825702159678,961.5912851079838,962.2956425539919,961.147821276996,960.073910638498,959.536955319249,961.2684776596245,961.6342388298123,961.8171194149061,961.408559707453,960.2042798537266,960.1021399268633,960.0510699634317,960.0255349817159,961.0127674908579,962.0063837454289,961.5031918727145,960.7515959363573,960.3757979681786,961.1878989840893,961.5939494920447,960.2969747460223,958.6484873730112,958.8242436865056,958.9121218432529,960.9560609216264,961.4780304608132,960.7390152304066,958.8695076152032,959.4347538076016,960.2173769038009,962.6086884519004,963.3043442259502,962.6521721129751,961.3260860564876,959.6630430282438,960.831521514122,962.915760757061,964.9578803785305,965.9789401892652,964.9894700946327,965.4947350473163,967.2473675236581,969.123683761829,970.5618418809145,972.2809209404572,973.6404604702286,974.3202302351143,975.1601151175571,977.5800575587785,979.7900287793893,979.8950143896947,979.4475071948473,979.7237535974236,981.8618767987118,983.4309383993559,984.215469199678,982.607734599839,979.8038672999195,978.4019336499598,980.2009668249799,982.6004834124899,983.300241706245,982.6501208531224,983.3250604265612,986.1625302132807,988.5812651066403,987.7906325533202,983.8953162766601,978.9476581383301,972.473829069165,967.7369145345825,963.8684572672912,961.4342286336456,959.7171143168227,957.8585571584114,954.4292785792056,954.2146392896028,956.1073196448015,958.0536598224007,958.0268299112004,957.5134149556002,955.2567074778001,953.6283537389,953.31417686945,954.657088434725,955.8285442173625,954.9142721086812,953.4571360543406,953.2285680271702,953.1142840135851,953.5571420067926,954.2785710033963,955.1392855016982,953.5696427508491,952.7848213754246,952.3924106877123,953.6962053438561,953.848102671928,953.924051335964,950.9620256679821,947.981012833991,942.9905064169955,939.4952532084977,936.2476266042488,932.1238133021244,925.0619066510621,916.5309533255311,911.2654766627655,915.6327383313828,929.3163691656914,949.1581845828457,973.0790922914229,1007.5395461457115,1051.2697730728557,1099.134886536428,1141.567443268214,1170.283721634107,1172.6418608170534,1141.3209304085267,1086.1604652042633,1028.0802326021317,980.5401163010658,950.2700581505329,936.1350290752664,934.0675145376332,936.5337572688165,939.7668786344083,940.3834393172042,940.6917196586021,939.845859829301,939.4229299146505,939.2114649573252,940.1057324786626,940.5528662393313,938.7764331196656,937.3882165598328,938.1941082799165,940.5970541399582,942.2985270699792,943.6492635349896,943.3246317674948,941.1623158837474,940.5811579418737,940.7905789709368,941.3952894854684,940.6976447427342,938.8488223713671,937.9244111856835,937.4622055928418,938.7311027964208,939.8655513982104,940.4327756991052,940.2163878495526,939.1081939247763,937.5540969623881,938.777048481194,939.388524240597,939.1942621202985,938.0971310601492,937.0485655300746,936.0242827650372,936.5121413825186,937.7560706912593,938.3780353456297,937.6890176728148,936.3445088364074,936.1722544182037,936.5861272091018,938.793063604551,940.3965318022755,939.6982659011378,938.8491329505689,938.9245664752845,940.4622832376422,941.7311416188211,942.8655708094105,941.9327854047053,939.4663927023527,938.7331963511763,938.3665981755881,938.683299087794,939.341649543897,938.6708247719484,936.8354123859742,936.4177061929871,938.2088530964936,938.1044265482468,938.0522132741235,938.0261066370617,937.5130533185309,936.2565266592654,937.1282633296328,938.0641316648164,939.0320658324082,937.516032916204,936.258016458102,935.129008229051,934.5645041145256,934.2822520572628,933.1411260286313,931.5705630143157,929.2852815071578,928.6426407535789,927.8213203767895,929.9106601883948,929.9553300941974,929.4776650470988,928.7388325235494,928.8694162617746,929.9347081308873,931.4673540654437,932.7336770327219,933.866838516361,934.4334192581805,936.2167096290902,939.1083548145451,942.0541774072726,945.0270887036363,946.5135443518182,948.7567721759091,950.8783860879546,954.4391930439773,957.2195965219887,959.6097982609944,961.3048991304972,960.6524495652486,960.8262247826243,962.9131123913121,964.956556195656,965.978278097828,965.489139048914,965.244569524457,966.6222847622284,967.8111423811142,969.4055711905571,970.2027855952786,970.6013927976393,969.8006963988196,969.9003481994098,970.4501740997049,972.2250870498524,972.1125435249262,972.0562717624631,969.0281358812315,968.5140679406157,968.7570339703079,970.378516985154,971.189258492577,970.0946292462885,968.5473146231443,967.7736573115722,967.3868286557861,968.693414327893,968.3467071639466,967.6733535819733,967.3366767909866,968.1683383954933,969.5841691977466,970.7920845988733,970.8960422994367,970.4480211497183,968.7240105748592,968.3620052874296,968.6810026437148,968.3405013218573,968.1702506609287,967.0851253304643,966.5425626652321,965.7712813326161,965.8856406663081,966.942820333154,966.971410166577,965.9857050832885,964.9928525416442,963.9964262708221,964.4982131354111,964.7491065677056,964.3745532838527,964.6872766419264,963.8436383209632,963.4218191604816,963.7109095802408,964.8554547901203,966.9277273950602,967.4638636975301,966.731931848765,966.3659659243825,967.1829829621913,967.5914914810957,969.2957457405478,969.6478728702739,968.3239364351369,967.1619682175685,969.0809841087843,969.0404920543922,968.0202460271961,966.5101230135981,965.755061506799,964.8775307533995,965.4387653766997,965.2193826883499,966.109691344175,965.0548456720875,964.0274228360438,963.5137114180219,963.756855709011,964.3784278545055,965.6892139272527,966.3446069636263,966.1723034818132,964.5861517409066,966.7930758704533,968.3965379352267,970.1982689676133,971.0991344838067,971.0495672419033,971.5247836209517,973.2623918104758,975.631195905238,977.315597952619,978.1577989763096,978.5788994881548,978.7894497440774,979.8947248720388,982.4473624360194,984.2236812180097,985.1118406090048,985.5559203045025,985.2779601522512,987.1389800761256,988.5694900380628,989.7847450190313,988.8923725095157,986.9461862547578,987.9730931273789,988.9865465636894,990.4932732818447,991.2466366409224,991.1233183204612,992.5616591602306,994.2808295801153,994.6404147900577,991.8202073950288,986.4101036975144,981.7050518487572,978.3525259243786,975.1762629621893,973.0881314810947,972.0440657405474,970.0220328702737,966.0110164351369,964.0055082175684,962.0027541087842,962.5013770543922,963.2506885271961,963.125344263598,962.062672131799,960.5313360658995,960.2656680329497,961.6328340164748,960.8164170082374,961.9082085041186,961.4541042520593,960.7270521260297,959.3635260630149,960.1817630315074,961.0908815157537,962.0454407578768,960.5227203789384,959.2613601894692,959.1306800947345,959.0653400473673,959.5326700236836,958.7663350118419,956.8831675059209,953.4415837529605,951.2207918764802,946.1103959382401,941.5551979691201,937.27759898456,931.63879949228,922.81939974614,916.9096998730699,917.454849936535,927.7274249682675,945.3637124841338,970.1818562420669,996.0909281210335,1032.0454640605167,1076.0227320302583,1123.0113660151292,1164.5056830075646,1191.7528415037823,1195.8764207518911,1171.9382103759456,1120.9691051879727,1059.4845525939863,1002.2422762969932,964.1211381484966,946.0605690742483,942.0302845371241,945.015142268562,947.0075711342811,947.5037855671405,948.2518927835703,946.6259463917852,946.8129731958926,947.9064865979462,948.4532432989731,947.7266216494866,946.8633108247433,944.9316554123716,944.9658277061858,945.4829138530929,947.2414569265464,947.6207284632733,945.8103642316366,945.4051821158183,944.2025910579091,945.1012955289546,947.0506477644773,948.0253238822386,947.5126619411193,947.2563309705597,946.1281654852799,947.0640827426399,948.03204137132,948.01602068566,948.50801034283,947.254005171415,946.1270025857075,947.5635012928537,947.2817506464269,946.6408753232134,946.3204376616068,946.1602188308034,946.0801094154017,947.0400547077008,949.5200273538504,949.2600136769252,949.1300068384626,947.5650034192313,946.7825017096156,947.3912508548078,948.1956254274039,948.597812713702,948.2989063568509,947.6494531784255,945.8247265892128,945.4123632946064,947.2061816473032,948.1030908236517,946.5515454118258,945.2757727059129,945.1378863529565,946.0689431764782,946.5344715882391,946.7672357941195,946.8836178970598,944.9418089485299,944.4709044742649,945.2354522371324,946.6177261185662,947.3088630592831,947.6544315296416,946.8272157648207,947.4136078824104,948.2068039412052,949.6034019706026,951.3017009853013,950.6508504926506,948.3254252463253,947.6627126231626,947.8313563115813,948.4156781557906,948.2078390778953,946.1039195389476,944.0519597694738,943.5259798847369,945.2629899423684,946.6314949711842,946.315747485592,945.157873742796,943.078936871398,942.0394684356991,942.0197342178495,943.5098671089247,942.7549335544624,943.3774667772311,942.1887333886156,942.5943666943078,943.7971833471539,944.8985916735769,945.9492958367885,947.4746479183942,947.237323959197,948.1186619795985,949.5593309897993,951.7796654948996,953.8898327474499,954.9449163737249,954.9724581868625,955.9862290934312,959.9931145467156,963.4965572733578,965.2482786366788,965.6241393183394,967.3120696591698,968.1560348295849,970.0780174147924,971.5390087073962,972.769504353698,973.384752176849,973.6923760884245,973.8461880442122,974.4230940221062,975.2115470110531,976.6057735055265,976.3028867527632,974.6514433763816,974.8257216881908,974.9128608440953,974.9564304220477,975.4782152110238,975.2391076055119,974.619553802756,973.809776901378,973.904888450689,974.9524442253445,974.9762221126723,974.4881110563362,972.744055528168,971.872027764084,972.4360138820421,973.218006941021,972.1090034705105,971.0545017352553,970.0272508676276,969.5136254338138,970.7568127169069,971.8784063584535,971.4392031792268,971.7196015896134,970.3598007948067,970.1799003974033,971.0899501987017,972.5449750993508,972.7724875496754,972.3862437748377,969.6931218874188,968.8465609437094,968.4232804718547,969.7116402359273,967.8558201179637,967.9279100589819,965.963955029491,965.4819775147455,967.2409887573727,966.6204943786863,966.8102471893432,966.4051235946715,964.7025617973358,963.3512808986679,963.675640449334,963.837820224667,963.9189101123335,963.4594550561667,960.2297275280833,960.1148637640417,961.5574318820209,962.2787159410104,964.1393579705052,964.0696789852526,963.0348394926264,963.0174197463132,962.5087098731566,963.7543549365782,963.8771774682891,962.4385887341446,961.7192943670723,961.3596471835361,962.1798235917681,962.0899117958841,962.044955897942,961.5224779489711,959.7612389744855,960.8806194872427,961.9403097436214,963.9701548718107,963.9850774359054,963.9925387179527,964.9962693589764,967.9981346794882,970.4990673397441,972.2495336698721,972.624766834936,973.812383417468,973.406191708734,975.203095854367,976.1015479271834,978.0507739635917,979.0253869817959,979.012693490898,979.006346745449,980.0031733727245,981.5015866863623,984.7507933431812,985.3753966715906,984.6876983357953,984.3438491678976,984.6719245839488,984.8359622919744,985.4179811459871,984.2089905729936,983.1044952864968,982.5522476432484,983.2761238216242,984.6380619108121,985.8190309554061,988.409515477703,991.2047577388515,991.1023788694258,989.5511894347129,987.2755947173564,983.1377973586782,980.5688986793391,978.2844493396695,973.1422246698348,969.5711123349174,967.2855561674587,966.6427780837294,965.3213890418647,962.6606945209323,959.8303472604662,959.9151736302331,959.9575868151165,960.4787934075582,960.7393967037791,959.8696983518896,957.9348491759448,957.4674245879723,957.2337122939862,958.6168561469931,958.8084280734965,957.4042140367483,955.2021070183741,955.1010535091871,956.0505267545935,958.5252633772968,958.2626316886484,957.6313158443243,955.3156579221621,955.1578289610811,957.0789144805406,959.0394572402703,959.5197286201351,958.2598643100675,955.6299321550338,952.3149660775168,948.6574830387584,941.8287415193793,936.4143707596896,930.2071853798448,922.1035926899224,915.5517963449612,915.7758981724805,924.8879490862403,943.9439745431201,966.97198727156,995.98599363578,1032.99299681789,1079.496498408945,1125.7482492044724,1166.3741246022362,1193.6870623011182,1202.843531150559,1186.4217655752796,1142.7108827876398,1081.85544139382,1020.92772069691,974.963860348455,950.9819301742275,942.4909650871138,943.2454825435568,947.1227412717784,949.5613706358893,948.2806853179446,947.6403426589723,946.8201713294861,947.9100856647431,948.9550428323715,947.9775214161857,947.4887607080929,945.2443803540464,944.1221901770232,945.0610950885116,944.5305475442558,945.2652737721279,944.6326368860639,944.316318443032,943.1581592215159,943.579079610758,944.289539805379,944.1447699026895,942.5723849513447,942.2861924756724,943.1430962378362,943.5715481189181,944.2857740594591,945.1428870297295,945.5714435148648,945.2857217574324,945.1428608787162,946.0714304393581,946.5357152196791,946.7678576098396,945.3839288049198,943.1919644024599,942.59598220123,943.297991100615,944.1489955503075,945.0744977751538,945.5372488875769,942.7686244437884,942.8843122218942,942.442156110947,943.7210780554735,943.3605390277368,943.1802695138683,942.0901347569342,941.5450673784671,941.2725336892336,942.1362668446168,943.5681334223084,941.7840667111542,940.892033355577,941.4460166777885,941.7230083388943,942.8615041694471,943.4307520847235,943.7153760423618,943.8576880211808,944.4288440105904,945.7144220052952,947.3572110026475,947.1786055013238,944.5893027506619,943.2946513753309,943.6473256876654,944.8236628438327,944.4118314219163,944.7059157109582,943.3529578554791,941.6764789277395,939.8382394638697,941.4191197319349,942.7095598659674,942.8547799329838,940.9273899664919,939.9636949832459,940.481847491623,941.2409237458114,942.6204618729057,942.3102309364529,942.1551154682264,940.0775577341133,939.0387788670566,940.0193894335283,942.0096947167642,942.5048473583821,942.752423679191,941.3762118395955,942.1881059197977,943.0940529598988
