189.85546875,273.625,353.2734375,429.19140625,502.05078125,571.29296875,553.3203125,539.61328125,530.3828125,525.046875,523.98046875,525.90625,526.80078125,526.5078125,526.59375,526.3203125,525.8203125,525.6328125,525.39453125,526.14453125,526.26171875,526.5546875,526.61328125,527.66015625,528.33984375,529.0234375,529.37890625,530.23046875,531.5390625,532.8359375,534.0,534.94140625,536.05078125,536.65234375,537.49609375,538.765625,539.921875,540.46484375,541.0390625,541.51171875,542.10546875,542.7421875,543.0078125,542.87890625,543.1875,543.30078125,543.640625,544.1953125,544.53515625,544.1484375,544.10546875,543.765625,543.9609375,544.67578125,544.765625,544.82421875,544.6875,544.9375,544.58984375,544.60546875,544.3203125,544.4453125,544.0546875,543.40234375,543.46484375,543.52734375,543.3671875,542.7265625,542.1953125,541.953125,541.53125,541.23828125,541.44921875,540.91015625,540.4765625,540.55078125,540.3984375,540.83984375,541.0703125,541.15625,541.515625,541.36328125,541.51171875,541.3828125,541.47265625,540.859375,540.0,539.2734375,539.19140625,539.30078125,539.01171875,539.0,538.64453125,538.57421875,538.41015625,538.26171875,538.6015625,538.421875,538.02734375,538.05078125,537.8671875,537.890625,537.53515625,537.484375,537.41015625,537.44140625,537.95703125,538.1484375,538.71484375,539.1484375,539.15625,539.96875,540.46484375,541.83984375,542.87109375,543.57421875,544.2421875,544.92578125,545.19921875,546.3359375,546.859375,547.88671875,548.890625,549.28515625,550.5703125,551.7578125,552.60546875,552.26953125,551.90625,551.3828125,550.953125,551.40625,551.76953125,551.984375,552.26953125,553.5078125,555.16015625,556.1640625,555.05078125,553.3125,551.5859375,549.61328125,546.7265625,544.93359375,542.453125,540.80078125,539.7421875,538.63671875,538.53515625,537.859375,537.8828125,537.8203125,537.7109375,537.0546875,537.03515625,537.1796875,536.81640625,536.66796875,536.41796875,535.64453125,536.01953125,536.1796875,536.40625,536.3203125,535.828125,535.9140625,536.32421875,536.22265625,535.8359375,535.66015625,534.76953125,533.9296875,531.3671875,528.83984375,525.82421875,521.95703125,518.53515625,517.23046875,521.31640625,530.91015625,543.40625,561.52734375,586.40625,615.1328125,641.94140625,662.46484375,672.0,665.55078125,642.40625,610.3515625,578.6953125,552.66015625,534.10546875,523.10546875,519.9921875,522.55078125,527.6328125,530.9609375,531.6015625,530.91015625,530.0,529.34375,529.6640625,529.23046875,528.953125,528.65234375,527.7265625,527.51171875,527.0234375,527.73046875,527.88671875,528.01953125,528.29296875,528.44921875,528.875,529.12109375,529.359375,529.29296875,529.2421875,528.8046875,528.61328125,528.84375,529.0703125,528.98046875,529.08984375,529.06640625,529.04296875,529.23828125,528.63671875,528.55859375,527.79296875,527.7578125,527.91796875,527.58203125,528.53125,528.2265625,528.30078125,528.17578125,528.46484375,529.4140625,529.07421875,528.83203125,529.3046875,529.046875,529.3203125,529.03125,529.73046875,529.578125,530.1640625,529.703125,529.78515625,530.1484375,529.93359375,529.8125,529.3359375,528.8515625,528.80078125,528.671875,529.03515625,528.5703125,528.51171875,527.92578125,528.0703125,528.3046875,528.24609375,527.9609375,527.4921875,527.61328125,527.53515625,527.875,528.19140625,528.2734375,528.625,528.76953125,529.40234375,529.52734375,529.86328125,529.8828125,530.01953125,530.0546875,530.22265625,530.6875,531.94140625,532.82421875,533.57421875,534.78515625,536.44140625,537.83984375,538.83984375,539.33203125,540.33984375,540.95703125,542.03125,542.71875,543.72265625,544.29296875,544.59375,545.20703125,545.3515625,546.01953125,545.90625,546.02734375,546.0546875,545.71484375,545.80078125,545.71875,545.62890625,545.75,545.66015625,545.66015625,545.8671875,545.66015625,545.9609375,545.35546875,544.375,544.14453125,544.53515625,544.5859375,544.65234375,544.68359375,544.95703125,544.8125,544.90625,545.39453125,545.2578125,544.53125,544.75390625,544.3515625,544.08203125,543.7578125,543.4375,542.890625,542.69140625,541.875,542.0859375,542.26953125,542.02734375,541.56640625,540.73046875,540.19140625,539.796875,539.73046875,539.05078125,539.07421875,539.25,538.7890625,539.23828125,538.8671875,539.57421875,539.546875,539.234375,539.109375,539.71484375,540.3671875,540.42578125,540.1796875,539.73046875,540.0,539.390625,539.84765625,539.77734375,539.89453125,539.87890625,539.78515625,540.7578125,540.8125,541.0625,541.00390625,540.64453125,540.50390625,540.72265625,541.82421875,542.37890625,543.1015625,543.5625,544.5,545.6015625,546.80859375,547.58203125,548.35546875,549.6015625,550.53515625,551.98046875,552.71875,554.25390625,554.94921875,555.77734375,555.51171875,554.84375,554.6484375,554.1484375,553.8984375,553.1015625,552.8203125,552.91796875,553.296875,554.9296875,555.76171875,556.015625,554.65234375,553.98046875,552.765625,551.20703125,549.06640625,546.83984375,545.03515625,544.1875,543.31640625,542.515625,541.14453125,540.53515625,540.35546875,539.6484375,539.6328125,539.77734375,539.8359375,539.3671875,538.62109375,538.375,538.14453125,538.03515625,537.4296875,536.7265625,536.421875,536.81640625,536.58203125,537.05859375,537.2734375,537.734375,537.46484375,537.13671875,535.81640625,533.40625,530.4375,526.54296875,522.1328125,518.828125,519.69140625,524.53515625,532.0390625,541.33203125,553.3125,569.80859375,589.3203125,611.4921875,633.12109375,653.1328125,670.2734375,680.0625,676.578125,657.5703125,628.26171875,596.09765625,567.375,545.74609375,532.015625,526.20703125,526.09375,529.453125,533.375,535.32421875,534.9765625,533.88671875,532.53515625,531.99609375,531.66796875,531.84375,531.9921875,532.28515625,532.19140625,531.9765625,531.46484375,531.29296875,531.53125,532.26953125,532.2578125,532.43359375,532.97265625,533.58203125,533.78125,533.71484375,533.546875,532.99609375,532.00390625,531.58984375,531.703125,531.8046875,531.390625,530.46875,530.4453125,530.703125,531.0546875,530.6953125,530.4296875,530.72265625,530.40625,529.828125,530.19921875,529.52734375,529.27734375,529.44921875,529.6875,530.08203125,530.58984375,531.2265625,531.32421875,531.234375,530.86328125,530.92578125,531.015625,530.828125,530.65234375,530.08203125,530.22265625,530.359375,530.1953125,530.2265625,530.046875,529.4453125,529.38671875,528.7421875,528.5234375,528.51171875,528.1875,528.14453125,527.70703125,528.0546875,527.87890625,527.6171875,527.84765625,527.95703125,528.0390625,528.4375,528.50390625,528.2578125,528.2421875,527.734375,527.75390625,528.48828125,529.18359375,530.0234375,530.62109375,531.36328125,532.17578125,532.98828125,534.49609375,535.46484375,536.11328125,537.265625,538.1015625,539.23828125,540.1015625,540.3671875,540.8515625,541.171875,540.71875,541.05078125,541.41015625,542.35546875,542.87109375,543.37890625,543.6328125,543.703125,543.59375,543.54296875,543.31640625,542.7265625,542.2734375,542.54296875,543.19140625,543.90234375,544.06640625,543.6953125,543.5234375,543.37890625,542.98046875,542.140625,541.74609375,540.6484375,539.8984375,540.17578125,540.01171875,541.109375,540.83203125,540.515625,540.77734375,540.8515625,540.8125,540.44140625,540.0625,539.984375,539.82421875,539.48046875,539.44921875,539.203125,538.44921875,537.33203125,536.56640625,536.41796875,536.5703125,536.203125,536.41015625,537.04296875,536.41015625,536.21875,535.74609375,535.37890625,535.53515625,535.11328125,535.16796875,535.51171875,536.11328125,536.46875,536.5234375,535.85546875,535.12890625,535.05859375,535.41796875,535.16796875,535.03515625,535.0703125,535.265625,535.75,536.03515625,536.390625,536.421875,536.05078125,536.3125,536.08984375,535.59375,536.13671875,535.8515625,535.85546875,535.4765625,535.80859375,536.59375,537.16796875,537.59375,538.296875,539.44140625,540.34765625,542.05078125,543.0,544.21875,544.515625,544.9609375,545.9296875,546.4375,547.6640625,547.98828125,548.30859375,548.4375,548.9140625,548.796875,548.75,547.81640625,547.1484375,546.71875,547.4296875,547.58984375,547.74609375,547.7421875,548.10546875,549.125,549.83984375,550.62109375,550.47265625,549.4375,548.3828125,546.54296875,544.640625,542.07421875,540.12109375,538.99609375,537.26953125,536.1328125,535.359375,535.08984375,534.73828125,534.15234375,533.5078125,532.9375,532.76171875,532.3828125,532.6015625,532.57421875,533.015625,532.90234375,532.99609375,533.06640625,533.44921875,533.3046875,532.99609375,532.69140625,532.8046875,533.21484375,533.52734375,533.7109375,533.5703125,533.2265625,532.51171875,530.76171875,528.7265625,525.609375,522.640625,518.8046875,514.9296875,513.046875,514.4296875,520.53515625,529.53515625,543.0390625,562.3203125,586.19921875,611.9375,635.6171875,653.71875,661.6015625,654.7265625,633.99609375,605.6484375,575.953125,549.77734375,529.54296875,518.0625,515.328125,517.3203125,520.7421875,524.55859375,525.8515625,526.66796875,526.1328125,525.62109375,525.38671875,524.35546875,524.23046875,524.2578125,524.05078125,524.62890625,524.66015625,524.9375,525.69140625,525.6171875,526.13671875,525.8671875,526.0078125,525.35546875,524.58203125,524.83984375,525.00390625,524.84375,524.703125,524.53125,524.328125,524.26171875,524.3046875,524.03515625,523.87109375,523.3046875,522.65625,523.04296875,522.41015625,522.6953125,522.65234375,522.48046875,522.3828125,522.71875,523.296875,523.96484375,523.89453125,523.8203125,523.9453125,524.0859375,524.34765625,524.1328125,523.72265625,523.52734375,523.1484375,523.1015625,522.76953125,523.0390625,522.76953125,522.8046875,522.41796875,522.8515625,523.34375,523.52734375,523.5859375,523.54296875,522.88671875,522.49609375,522.94921875,522.78125,522.5234375,521.875,522.01953125,521.9375,522.09375,521.53125,520.6875,520.05078125,519.45703125,519.28515625,519.53125,518.9296875,518.71484375,518.578125,518.22265625,517.98046875,517.76953125,518.42578125,518.33203125,518.73828125,519.40234375,521.1171875,522.93359375,524.59375,525.7578125,527.6875,529.0546875,530.65234375,532.36328125,533.96875,535.24609375,536.36328125,536.98828125,538.0703125,538.58984375,539.4609375,540.14453125,540.453125,541.0703125,541.6171875,542.1640625,542.83203125,543.09765625,543.66015625,543.52734375,544.03125,544.83203125,545.03125,544.4375,544.00390625,543.98046875,543.7890625,543.9453125,543.80078125,543.62890625,543.1484375,542.9921875,542.63671875,542.7109375,542.46875,542.2265625,541.76953125,541.828125,542.06640625,542.1015625,542.01953125,542.02734375,541.91015625,541.70703125,541.328125,541.17578125,541.3203125,540.66015625,540.72265625,539.97265625,540.5390625,540.96875,541.18359375,540.94921875,540.5390625,540.70703125,540.703125,539.625,539.1171875,538.8125,538.30078125,537.82421875,537.375,537.8828125,538.5390625,538.4453125,538.33203125,537.90625,538.3828125,538.4609375,538.5703125,538.46484375,538.25390625,538.328125,538.43359375,538.734375,538.62890625,538.421875,538.91015625,539.07421875,539.640625,539.9921875,540.22265625,540.33203125,540.5625,540.38671875,540.0546875,539.95703125,540.171875,540.671875,540.0625,539.87890625,541.08203125,541.91796875,542.5234375,543.2265625,543.65625,543.9609375,544.91796875,545.765625,546.59765625,547.421875,547.8203125,548.6171875,549.53125,550.83984375,551.62109375,552.5078125,553.16015625,553.7265625,554.31640625,554.3515625,554.12109375,553.65234375,553.03515625,552.375,552.4765625,553.0703125,553.31640625,552.62890625,552.05078125,552.3671875,552.97265625,553.9765625,555.33203125,555.77734375,555.27734375,553.44140625,552.14453125,550.07421875,547.87890625,545.40234375,543.01171875,541.234375,540.484375,539.86328125,539.06640625,538.78125,538.68359375,538.296875,538.703125,538.859375,538.66796875,538.27734375,538.1015625,537.5078125,536.875,536.484375,536.30078125,536.30078125,535.9921875,535.96484375,535.70703125,536.34375,536.8359375,536.40625,535.98828125,534.89453125,534.14453125,532.078125,529.55078125,527.51953125,523.96875,520.4453125,518.65625,519.92578125,526.05859375,535.3359375,547.7109375,565.24609375,588.7734375,614.859375,640.7578125,663.0625,680.4296875,688.5078125,682.03125,660.87109375,630.421875,596.8671875,566.3203125,542.46484375,527.66796875,521.34375,521.98828125,525.890625,529.42578125,531.6875,532.98046875,532.73046875,532.1328125,531.64453125,531.23828125,531.2578125,531.04296875,530.62890625,531.0078125,530.5390625,529.97265625,529.44140625,529.921875,530.44921875,530.1796875,529.796875,529.703125,529.6875,529.8046875,529.14453125,529.00390625,529.5390625,529.04296875,528.875,528.625,528.75,529.26171875,529.17578125,529.4609375,529.625,529.671875,530.125,530.28515625,530.33203125,530.58984375,530.23828125,530.7109375,530.78125,531.15625,531.3125,530.98046875,530.34375,530.16796875,530.1015625,530.35546875,529.703125,529.3671875,529.3125,529.45703125,529.58984375,529.73046875,528.9296875,528.5546875,527.99609375,528.17578125,528.1484375,528.23046875,528.16015625,527.9765625,528.37109375,528.9609375,529.31640625,530.16015625,530.15234375,530.4375,530.33203125,529.97265625,530.24609375,530.25,529.7421875,529.48046875,528.5234375,529.1953125,529.046875,528.71484375,528.6640625,528.10546875,528.3203125,528.0703125,528.22265625,528.1484375,528.2734375,528.16015625,528.46484375,529.0390625,529.39453125,530.2265625,530.82421875,531.48046875,532.22265625,533.45703125,534.7421875,536.0078125,537.6328125,539.0078125,540.3515625,541.3984375,542.859375,543.8125,544.50390625,544.62890625,544.71875,545.25390625,545.4375,545.05859375,545.4375,545.29296875,545.0625,545.67578125,545.5625,546.1328125,545.80078125,545.875,545.73046875,545.4375,545.84375,546.35546875,546.3203125,546.09765625,546.2734375,546.23046875,546.41796875,546.12109375,546.23046875,545.625,545.26171875,545.109375,544.78125,544.65234375,544.93359375,544.26171875,543.8125,542.984375,543.6796875,543.82421875,543.1875,543.0390625,542.57421875,543.6875,543.08984375,543.52734375,543.90625,543.26171875,543.62109375,543.62890625,543.80078125,543.59375,543.3125,542.91015625,542.3515625,541.921875,541.91796875,541.90234375,541.17578125,540.66015625,540.1484375,540.2421875,540.33203125,540.11328125,539.56640625,539.3203125,538.76171875,538.5390625,538.6328125,538.41015625,538.6640625,538.4921875,538.6015625,539.09375,539.26953125,539.72265625,539.8671875,540.19140625,540.20703125,540.0546875,540.3203125,539.99609375,540.59375,540.76953125,540.93359375,541.87890625,543.08984375,544.31640625,545.32421875,545.890625,546.4375,547.20703125,547.8046875,547.83203125,548.01171875,548.6015625,549.0859375,550.18359375,551.0546875,552.578125,553.33984375,554.39453125,554.42578125,554.91796875,554.828125,554.92578125,554.3515625,553.9609375,553.984375,554.43359375,554.24609375,554.8828125,556.14453125,556.72265625,556.1796875,554.40625,553.1171875,551.234375,549.21484375,546.71875,544.91015625,543.2890625,542.18359375,541.6328125,540.8125,540.20703125,539.83984375,539.60546875,540.12890625,540.19921875,540.125,539.62890625,539.046875,539.1796875,538.83203125,538.70703125,538.1796875,538.34765625,537.578125,537.56640625,537.73046875,537.3828125,536.92578125,536.203125,536.16796875,536.3359375,535.109375,533.53515625,531.125,529.00390625,526.98828125,524.6875,521.73046875,518.046875,515.0234375,513.640625,513.51171875,517.34765625,524.58984375,535.53125,550.53125,569.9765625,594.30859375,620.50390625,645.05859375,664.87890625,675.65234375,672.6171875,653.45703125,624.35546875,592.31640625,564.52734375,542.5078125,528.625,522.8671875,524.12109375,528.58984375,532.22265625,534.46875,534.48046875,532.9375,532.23828125,532.28125,532.37890625,531.78125,531.7109375,532.16015625,532.16015625,531.875,531.70703125,531.7109375,531.11328125,531.265625,531.50390625,531.6171875,531.8203125,531.71484375,531.98046875,531.6484375,531.84765625,531.8359375,532.1328125,532.109375,532.0,531.9765625,531.875,532.17578125,532.2734375,532.1640625,532.85546875,532.90234375,533.1484375,533.80078125,534.0234375,534.125,533.66796875,533.4296875,532.91796875,532.76953125,532.8359375,532.796875,532.140625,532.0078125,532.05078125,532.08984375,532.23046875,531.76171875,531.4765625,530.41015625,530.5,530.58203125,530.8671875,531.0078125,530.5234375,531.10546875,531.47265625,531.7265625,532.1875,531.9296875,531.85546875,531.51953125,531.12109375,531.35546875,531.00390625,530.453125,530.32421875,530.18359375,530.42578125,530.47265625,530.40234375,530.703125,530.6796875,530.0546875,529.98046875,530.109375,530.8203125,530.8125,530.8046875,530.66015625,530.92578125,531.484375,531.35546875,531.12890625,531.11328125,531.18359375,531.66796875,531.85546875,532.92578125,533.72265625,534.3828125,535.3125,536.72265625,538.56640625,540.17578125,541.4375,542.37109375,543.30859375,544.4765625,544.8828125,545.35546875,545.36328125,545.8125,545.984375,546.01171875,546.453125,546.8984375,546.8203125,547.26953125,546.80078125,546.96484375,547.2421875,547.12890625,547.01171875,546.62890625,546.13671875,546.48046875,546.91796875,547.0234375,547.41796875,547.37109375,547.6015625,547.84375,547.50390625,547.484375,547.48828125,547.3828125,546.89453125,546.44921875,546.60546875,546.05078125,545.828125,545.609375,544.87109375,544.453125,544.56640625,544.73828125,544.69140625,544.8359375,544.4296875,544.328125,544.046875,544.0859375,544.1171875,543.359375,543.11328125,543.0703125,543.21875,543.06640625,542.82421875,542.8515625,542.5625,542.88671875,542.703125,542.8203125,542.62109375,542.53515625,542.43359375,541.859375,541.40625,541.78125,541.0234375,540.90234375,540.18359375,539.96875,540.4375,540.60546875,540.91796875,540.51171875,540.69140625,540.8515625,541.1328125,541.2109375,541.3984375,540.75390625,540.65234375,540.96484375,541.07421875,541.18359375,541.09375,541.0703125,541.24609375,541.43359375,541.21484375,541.41796875,541.6015625,541.66796875,542.0390625,542.20703125,542.8515625,543.4765625,544.1796875,544.546875,544.91796875,545.67578125,546.62890625,548.0625,548.9609375,549.62890625,549.7890625,550.0859375,550.71484375,551.1875,551.67578125,552.6640625,553.20703125,554.33984375,555.546875,555.7265625,555.9296875,555.07421875,554.4921875,554.0,553.88671875,554.078125,554.0703125,553.8125,553.640625,554.45703125,555.921875,556.81640625,557.0703125,556.00390625,554.29296875,552.62890625,550.734375,548.97265625,546.6015625,544.3828125,543.27734375,542.2421875,541.37109375,540.359375,539.27734375,539.12890625,538.6328125,538.30859375,538.26171875,538.46484375,538.6015625,538.2265625,538.24609375,538.34765625,538.34375,538.55078125,538.15625,538.359375,538.05078125,537.76953125,537.80078125,537.54296875,537.47265625,536.32421875,534.72265625,533.4921875,531.828125,529.9375,528.234375,526.55078125,525.5625,524.66015625,522.125,518.9375,515.93359375,515.1875,517.80078125,524.4921875,534.95703125,550.4765625,572.51171875,598.5625,623.94140625,645.234375,658.4765625,657.98046875,640.9296875,614.12890625,584.03125,557.66796875,537.734375,525.453125,521.015625,521.74609375,525.43359375,529.296875,531.16796875,531.19921875,530.7265625,530.6953125,530.43359375,530.17578125,530.328125,530.27734375,529.8046875,529.45703125,529.50390625,529.73046875,530.35546875,530.9453125,530.98046875,530.60546875,530.5546875,530.515625,530.4140625,529.65234375,529.125,528.80078125,528.58984375,528.1875,528.3984375,529.25390625,529.3359375,529.30078125,529.06640625,529.5234375,529.8671875,530.640625,530.2734375,530.3203125,529.85546875,530.2421875,530.328125,529.85546875,529.9765625,529.09375,528.9296875,528.99609375,528.96484375,528.8125,528.17578125,528.01953125,527.6640625,527.734375,528.09765625,528.52734375,528.90234375,529.15234375,529.26953125,529.390625,529.6328125,529.8828125,529.734375,529.60546875,529.5859375,530.0703125,530.1484375,530.4375,530.59765625,530.4453125,530.40234375,530.88671875,531.046875,530.62109375,530.82421875,530.40625,530.0078125,529.7578125,529.2265625,529.0,528.1953125,527.30859375,526.75,526.20703125,526.359375,525.9921875,526.30078125,526.44140625,526.3515625,526.2421875,526.5546875,527.22265625,527.375,527.625,528.0546875,529.15234375,530.21484375,531.65625,532.73046875,533.6640625,534.57421875,535.3984375,536.63671875,537.38671875,538.05078125,538.2265625,538.640625,539.375,540.734375,540.6640625,540.8359375,541.0,541.4765625,541.671875,541.9296875,542.7578125,543.0546875,542.94921875,543.07421875,543.40625,543.5390625,543.90625,543.86328125,543.8125,543.375,543.37890625,543.19140625,543.1328125,542.57421875,542.0390625,541.8046875,541.5859375,542.1640625,542.51171875,542.60546875,542.37109375,542.140625,541.71875,541.55078125,541.2109375,540.6875,540.5703125,540.046875,540.42578125,540.578125,540.7109375,540.80859375,540.89453125,540.84765625,540.23046875,540.25390625,539.58203125,539.3515625,538.43359375,537.859375,538.2734375,538.37109375,538.32421875,537.87890625,537.30859375,536.7421875,536.53125,536.4296875,536.22265625,536.203125,536.05078125,536.078125,536.00390625,536.12890625,536.234375,536.43359375,535.91015625,535.71875,536.234375,536.828125,536.99609375,536.47265625,536.2421875,535.91796875,536.13671875,535.77734375,536.23828125,535.9453125,535.953125,535.05078125,534.9140625,535.1640625,534.92578125,535.07421875,535.015625,535.203125,535.98046875,536.53515625,536.75390625,536.8671875,537.07421875,537.078125,537.2265625,537.49609375,537.76171875,537.9140625,537.47265625,537.15234375,537.55859375,537.45703125,538.07421875,538.26171875,538.3125,538.74609375,538.88671875,539.61328125,540.234375,540.93359375,541.58984375,541.8359375,542.48046875,543.53515625,544.265625,544.99609375,545.921875,546.60546875,547.48828125,548.2890625,548.6875,548.50390625,548.3828125,547.80078125,547.69140625,547.328125,546.8046875,547.19140625,546.84765625,546.390625,546.16015625,546.3203125,547.140625,548.0390625,547.671875,546.703125,546.48046875,545.28515625,544.19921875,542.01953125,539.82421875,538.28125,537.1015625,535.9140625,534.73828125,533.80859375,533.20703125,533.15625,532.953125,532.6953125,533.19140625,533.21484375,532.8125,531.8359375,531.5,531.36328125,531.26171875,531.85546875,531.4921875,531.90234375,531.58203125,532.07421875,532.0390625,531.44140625,531.14453125,530.78515625,531.41796875,531.84375,532.24609375,532.40234375,531.73828125,530.30078125,528.58203125,525.3828125,523.76171875,520.22265625,516.4296875,513.9453125,514.6796875,519.76953125,527.4921875,539.59375,557.0390625,579.4375,605.12890625,628.3046875,646.06640625,654.2578125,648.47265625,629.59375,602.90234375,574.35546875,549.55859375,530.26171875,518.53515625,514.37890625,516.10546875,520.21484375,523.4453125,525.328125,525.48828125,525.2578125,524.9296875,525.01171875,525.13671875,525.2421875,525.4453125,525.23046875,525.01953125,524.828125,525.05078125,524.5625,524.41015625,523.94921875,523.703125,524.45703125,523.98828125,524.31640625,524.01953125,524.01171875,524.58984375,524.8828125,525.73046875,525.85546875,525.66015625,525.28125,526.05078125,526.4921875,526.05859375,525.75390625,525.64453125,525.32421875,525.0703125,524.94921875,525.00390625,525.0390625,524.56640625,524.1015625,524.25,524.38671875,524.421875,524.15234375,523.87109375,523.6796875,523.7109375,523.25,523.4140625,523.3515625,523.2734375,522.69140625,523.04296875,523.55078125,523.7421875,523.2265625,523.33203125,523.6953125,523.76171875,523.8515625,523.9453125,524.00390625,524.06640625,523.55078125,523.3671875,523.296875,523.43359375,522.86328125,522.02734375,521.40625,521.41015625,521.30859375,520.32421875,520.15625,519.94921875,519.21875,518.734375,518.5703125,518.2578125,517.953125,517.15625,516.859375,516.8515625,516.9375,517.5,517.31640625,517.6015625,517.55859375,518.0234375,518.8671875,519.59765625,519.97265625,520.05078125,520.71875,521.08203125,521.875,522.9609375,524.0,524.984375,526.45703125,528.3671875,530.2265625,531.35546875,532.3828125,533.90234375,534.82421875,535.80078125,536.62109375,537.75390625,538.27734375,538.65625,538.6640625,539.125,539.6015625,540.2109375,540.41015625,540.12109375,540.54296875,541.0703125,541.3984375,541.7421875,541.7734375,542.18359375,541.8984375,541.5625,542.05859375,542.34375,542.51171875,542.09375,541.87890625,541.36328125,541.40625,541.36328125,540.92578125,540.28515625,539.765625,539.94140625,540.11328125,539.87890625,539.3359375,539.28125,539.203125,539.33984375,539.578125,540.19140625,540.2421875,540.09375,540.046875,540.015625,539.99609375,540.015625,539.625,539.84765625,539.65234375,538.875,539.03515625,538.890625,538.828125,538.484375,538.04296875,538.77734375,539.0859375,538.97265625,538.96484375,538.83984375,538.796875,537.8046875,537.98046875,538.23046875,538.265625,537.9921875,537.83203125,538.5234375,539.390625,539.03125,538.99609375,538.546875,538.91015625,538.6953125,539.03515625,539.03125,539.32421875,539.1796875,538.96484375,539.15234375,538.85546875,539.06640625,538.98046875,539.1875,539.26953125,539.55859375,540.51953125,541.0390625,541.23046875,541.328125,541.625,541.8203125,542.4609375,542.98828125,543.39453125,543.68359375,543.4765625,544.19140625,544.8046875,545.51171875,546.296875,546.55859375,547.09375,547.84375,549.28515625,549.79296875,550.515625,551.20703125,551.59375,552.6015625,553.13671875,553.8671875,553.6015625,552.88671875,552.23046875,552.66015625,552.19140625,552.08203125,552.05859375,552.7890625,553.14453125,554.015625,555.7109375,556.9140625,556.6640625,554.8828125,553.21484375,551.6875,550.0234375,547.99609375,545.9453125,544.69140625,543.51171875,542.62109375,541.5,540.33203125,539.8203125,539.46484375,539.0625,539.13671875,539.15234375,539.40625,539.02734375,538.453125,538.28515625,537.83203125,538.1015625,537.96484375,538.21484375,538.12109375,537.62890625,537.5390625,537.57421875,537.796875,537.3203125,535.8671875,534.86328125,532.8125,530.9765625,528.25,525.1328125,521.99609375,520.9609375,523.4375,530.953125,541.80078125,556.6953125,577.328125,602.640625,629.49609375,652.42578125,667.328125,668.875,654.27734375,626.4921875,595.2734375,566.75,544.65234375,529.91796875,523.16015625,523.99609375,528.01171875,532.07421875,534.53515625,534.61328125,533.67578125,532.72265625,532.10546875,532.703125,533.19140625,532.95703125,533.2890625,533.0546875,533.3046875,533.578125,533.56640625,533.4375,533.1328125,532.828125,532.75390625,533.09375,533.21484375,533.125,533.0234375,532.2109375,532.7421875,532.56640625,532.703125,532.72265625,532.23828125,532.53125,532.44140625,532.546875,532.55859375,533.06640625,533.1171875,532.984375,533.45703125,534.0078125,534.4296875,534.66015625,534.3828125,534.2109375,534.078125,534.3828125,534.08984375,533.62109375,532.9609375,532.2265625,532.421875,532.421875,532.50390625,532.35546875,532.37890625,532.1640625,532.58203125,532.6796875,533.171875,533.2265625,533.48046875,533.8046875,533.94140625,534.1796875,534.03515625,533.796875,533.484375,533.203125,533.04296875,532.60546875,532.6796875,532.43359375,532.18359375,531.93359375,530.9921875,531.1796875,531.05859375,531.328125,530.87109375,530.42578125,530.74609375,531.26953125,531.35546875,531.453125,531.71875,531.94921875,532.78125,533.6015625,534.6796875,535.90625,536.78515625,537.53125,539.0859375,540.40234375,541.7109375,542.4140625,543.52734375,544.515625,545.04296875,545.91015625,546.80078125,547.17578125,547.4921875,547.4453125,548.0234375,548.515625,549.12890625,549.328125,549.6328125,549.3203125,549.66015625,550.20703125,550.35546875,550.30078125,550.3671875,550.20703125,550.1796875,550.0859375,549.8046875,549.6328125,548.875,548.54296875,548.328125,548.421875,548.48828125,548.4453125,548.0625,547.6875,547.51953125,547.171875,547.140625,546.7109375,546.4765625,545.73828125,545.83203125,546.1015625,546.3515625,546.06640625,546.0859375,545.859375,546.15625,546.05859375,545.98046875,545.984375,545.39453125,544.62109375,544.3046875,544.09765625,543.89453125,543.6015625,543.1875,542.953125,542.8203125,542.98828125,543.234375,543.25390625,542.6484375,542.46484375,542.58203125,542.8046875,542.828125,542.5546875,542.75390625,542.83203125,543.31640625,543.19140625,543.47265625,543.2265625,543.40625,542.77734375,542.2109375,542.46484375,542.21875,542.765625,542.09375,542.22265625,542.6171875,543.0078125,543.5625,544.421875,544.79296875,545.35546875,546.41015625,547.13671875,548.55078125,549.04296875,549.72265625,550.19921875,551.10546875,552.19921875,553.11328125,554.1015625,554.87109375,555.7265625,556.29296875,557.1875,557.28515625,556.93359375,556.23828125,555.125,554.89453125,554.8203125,554.74609375,555.55078125,556.3671875,557.58203125,558.43359375,557.94921875,556.8984375,554.66015625,552.98046875,550.2421875,548.484375,546.97265625,546.0703125,545.7890625,544.94140625,543.8984375,543.83203125,543.69140625,543.41015625,543.1328125,542.72265625,541.578125,541.8984375,541.79296875,541.57421875,540.7578125,540.2578125,540.11328125,539.90625,539.90625,540.08984375,540.31640625,540.01171875,539.8125,539.51953125,539.7421875,539.66796875,539.1015625,538.05078125,536.1484375,533.640625,531.37890625,528.53125,523.80078125,519.85546875,518.390625,520.5390625,525.53125,533.19140625,542.5859375,553.1015625,566.0234375,582.80859375,603.38671875,624.89453125,646.17578125,664.51953125,675.4609375,673.046875,655.29296875,627.28515625,595.33984375,566.87890625,544.1484375,530.72265625,525.06640625,525.86328125,529.6953125,533.48046875,535.53515625,535.703125,535.2109375,534.58203125,534.5546875,534.3984375,534.546875,534.5,534.93359375,535.3125,534.578125,534.671875,533.96484375,533.59765625,533.671875,533.2578125,533.6171875,533.26953125,532.8984375,533.33203125,533.8515625,534.01953125,534.19921875,534.25,533.078125,533.19921875,532.94140625,533.59765625,533.625,533.75390625,534.59765625,535.31640625,535.9921875,536.4765625,536.734375,536.390625,536.20703125,536.265625,536.3515625,535.9609375,535.3046875,534.76171875,534.3359375,534.13671875,534.15234375,534.2421875,534.19140625,534.21484375,533.8203125,533.640625,533.87109375,534.08984375,533.9921875,533.50390625,533.61328125,533.7109375,533.921875,533.93359375,534.33203125,534.1875,533.95703125,534.54296875,534.015625,534.1171875,533.83203125,533.0546875,532.703125,532.6015625,533.16796875,533.41015625,533.328125,532.91015625,532.80078125,532.796875,532.2265625,532.4921875,532.43359375,532.34765625,532.36328125,533.1796875,534.01953125,534.8359375,535.109375,536.0625,537.265625,538.0546875,539.546875,540.8046875,542.0078125,542.8984375,543.61328125,544.23046875,545.0,545.390625,546.22265625,546.3515625,546.11328125,546.21875,546.86328125,547.1875,547.140625,547.5,547.421875,547.45703125,548.23046875,548.1796875,548.2265625,547.99609375,547.5703125,548.1640625,547.97265625,547.88671875,548.203125,547.7890625,547.57421875,547.109375,547.15625,547.39453125,546.640625,546.30078125,545.46484375,544.953125,545.16796875,545.1796875,544.84765625,544.81640625,544.94140625,545.43359375,545.421875,545.8125,545.6640625,545.5234375,544.99609375,544.92578125,544.953125,544.40234375,544.765625,544.1015625,543.34375,542.53125,542.66015625,542.84765625,542.1484375,541.84765625,541.21875,540.984375,540.67578125,540.29296875,540.5859375,539.84765625,539.91015625,540.05859375,540.48828125,540.77734375,540.87109375,541.015625,541.0546875,541.80078125,541.83203125,542.08203125,541.7265625,541.6953125,541.36328125,540.9921875,541.3359375,541.46875,542.07421875,541.65234375,541.4375,541.8125,542.09375,542.859375,543.015625,542.9375,543.15625,544.0859375,545.37890625,546.34765625,546.97265625,548.05859375,549.09765625,550.140625,551.1015625,551.6640625,552.12890625,552.32421875,553.0625,554.01171875,554.9609375,555.6875,556.5,556.28125,556.0234375,555.3359375,554.6328125,554.1015625,553.43359375,553.47265625,553.1953125,553.89453125,555.01953125,556.7578125,558.37109375,558.7109375,558.23046875,557.42578125,555.73046875,554.3203125,552.45703125,550.390625,548.69140625,547.03515625,546.26953125,544.9765625,543.36328125,541.42578125,540.0,539.35546875,539.00390625,538.59765625,538.828125,538.44921875,538.8203125,538.1484375,538.1015625,538.23046875,537.56640625,537.51171875,536.9765625,537.03125,537.0859375,537.2421875,537.5546875,537.15234375,537.04296875,536.64453125,535.9765625,534.953125,532.10546875,529.8828125,527.26953125,524.86328125,521.4453125,517.15625,514.33203125,513.02734375,514.53125,519.3046875,527.51953125,539.75390625,555.89453125,575.9375,599.33203125,622.796875,643.2265625,655.421875,656.140625,642.5078125,617.01171875,588.37890625,562.38671875,541.97265625,528.51953125,522.75390625,522.76171875,526.41796875,530.35546875,532.6640625,532.9609375,531.7890625,530.96875,530.859375,531.23828125,530.80859375,531.015625,530.84765625,531.046875,530.9375,530.85546875,531.25,531.0390625,531.12890625,530.42578125,530.8515625,531.44921875,531.73828125,531.6015625,530.87890625,530.7578125,530.0703125,529.953125,529.44921875,529.359375,529.7265625,529.47265625,530.4921875,530.76171875,531.390625,531.6875,531.88671875,532.16015625,531.58203125,531.94921875,531.82421875,531.72265625,531.6328125,530.859375,530.9921875,530.34765625,530.32421875,530.296875,529.56640625,528.93359375,528.73828125,529.01953125,529.08203125,528.546875,528.49609375,528.31640625,528.0390625,528.09375,528.2421875,528.75390625,529.03125,529.0859375,529.42578125,529.95703125,530.46875,530.1875,529.53515625,529.21875,529.234375,528.37890625,527.89453125,527.515625,527.015625,526.02734375,525.79296875,525.8203125,526.0234375,526.1953125,526.23046875,526.11328125,526.49609375,527.16015625,527.50390625,528.234375,529.125,530.05859375,530.96875,531.87109375,533.046875,534.0,534.3515625,534.83203125,535.23828125,536.0703125,536.71875,536.984375,536.953125,537.34375,538.23046875,538.71875,539.515625,540.1796875,540.5078125,540.74609375,540.625,541.33203125,541.74609375,541.87109375,542.0,541.73046875,542.2734375,543.0234375,542.95703125,543.203125,542.24609375,542.0234375,541.54296875,541.62890625,541.796875,541.26953125,540.91015625,540.56640625,540.515625,540.27734375,539.76171875,539.44140625,538.4140625,538.32421875,538.53515625,539.21875,539.44140625,539.8359375,539.75,539.375,538.94140625,538.66796875,538.61328125,538.08203125,537.46875,537.0625,536.359375,536.3828125,536.30078125,535.890625,535.66796875,535.1328125,535.390625,535.640625,535.4765625,535.59765625,535.1015625,535.0,534.91796875,535.453125,535.3515625,535.265625,535.25390625,535.0390625,535.234375,534.953125,534.77734375,535.00390625,535.3125,535.29296875,535.1875,535.17578125,535.5546875,535.53125,534.82421875,534.25390625,534.40234375,534.34375,534.90234375,534.83203125,534.7265625,534.40234375,534.8046875,535.08203125,535.67578125,535.7265625,535.671875,535.69921875,535.2578125,535.75,536.05078125,536.53125,536.98046875,537.0078125,537.91015625,538.80078125,539.4609375,539.9140625,540.6640625,541.671875,542.37109375,542.98828125,544.109375,545.08984375,545.26171875,545.3828125,545.83203125,546.88671875,547.34765625,547.53515625,547.12109375,546.4375,546.11328125,546.4609375,546.80859375,546.64453125,546.5625,547.4453125,549.0625,550.0234375,549.66015625,548.41796875,546.9375,544.390625,541.765625,538.8203125,536.4921875,534.8046875,533.4140625,531.95703125,531.84375,532.37890625,532.87109375,532.7578125,532.78125,532.53125,532.203125,531.82421875,531.7890625,531.83984375,531.28515625,531.04296875,531.296875,531.3203125,531.25,531.18359375,531.484375,531.05859375,530.97265625,530.890625,531.3125,531.109375,530.9296875,529.93359375,528.9921875,527.00390625,525.14453125,523.0703125,520.39453125,516.8984375,512.8359375,510.171875,510.73046875,514.62109375,521.53515625,531.875,548.640625,570.6796875,595.31640625,618.828125,638.25390625,648.2109375,643.58203125,625.89453125,600.98046875,573.546875,548.015625,528.20703125,517.24609375,514.06640625,515.91015625,519.19140625,522.59375,524.3125,524.6640625,524.16796875,523.78515625,523.5703125,522.73046875,522.41015625,522.8203125,523.68359375,524.08203125,524.55078125,524.84765625,524.6171875,524.73046875,524.58984375,524.46875,523.78125,522.94140625,522.82421875,522.62109375,522.921875,522.99609375,523.1328125,523.31640625,523.1875,522.859375,523.26953125,523.15625,522.859375,522.3828125,522.125,521.9609375,521.93359375,522.09375,522.12890625,521.9375,521.64453125,521.859375,521.96484375,522.57421875,522.94921875,522.79296875,522.9296875,523.2734375,524.00390625,524.23046875,524.46875,524.28125,523.71484375,523.69921875,523.32421875,523.078125,522.85546875,522.42578125,521.984375,521.97265625,522.63671875,522.35546875,522.18359375,522.1953125,522.27734375,521.9609375,522.1015625,522.3125,522.60546875,521.984375,521.703125,521.515625,521.15234375,520.71875,519.82421875,519.13671875,518.171875,517.84375,517.2109375,517.6875,517.38671875,517.26953125,517.30859375,517.53515625,518.11328125,518.39453125,518.83984375,519.453125,520.03515625,521.1015625,522.44140625,523.7265625,525.171875,526.171875,527.75,529.10546875,530.86328125,532.1953125,533.4375,534.6640625,534.91796875,535.52734375,536.3984375,537.08984375,537.40625,537.26953125,537.6484375,538.5390625,538.9296875,539.4375,539.73046875,540.203125,540.26953125,540.484375,540.7109375,541.25,541.0703125,541.12890625,540.1875,540.20703125,540.13671875,540.30078125,540.3359375,539.7734375,539.6875,539.61328125,539.44140625,539.58984375,539.03125,538.76953125,538.8125,539.25,539.8515625,540.13671875,540.27734375,540.3984375,540.01953125,539.98828125,539.890625,539.41015625,539.16015625,538.625,538.59375,538.26171875,538.14453125,538.40625,538.2421875,537.9609375,537.6953125,537.42578125,537.5625,537.30859375,536.95703125,537.10546875,536.83203125,536.86328125,536.8984375,537.21875,538.0,538.1484375,538.17578125,538.40625,538.9296875,539.04296875,539.49609375,539.52734375,539.2578125,539.11328125,539.90625,539.76171875,539.15234375,538.48046875,538.32421875,538.06640625,537.8671875,537.46484375,537.74609375,537.37890625,537.125,537.0703125,537.015625,537.13671875,537.3671875,537.66015625,537.828125,537.48828125,538.56640625,539.08984375,539.69921875,540.08984375,540.3671875,541.2109375,541.9765625,542.9296875,543.5625,544.0859375,544.69140625,545.2109375,545.84765625,546.80078125,547.43359375,547.9609375,548.4921875,548.82421875,549.875,550.3203125,550.77734375,550.53515625,550.03515625,550.7734375,550.9296875,551.296875,551.37109375,551.5234375,552.63671875,553.4375,553.70703125,552.69140625,550.7421875,549.0078125,547.1171875,544.765625,542.73828125,541.44921875,540.30859375,538.64453125,537.7734375,536.7265625,536.53125,536.1796875,535.78125,535.61328125,535.21875,535.390625,535.75,535.07421875,535.4140625,535.22265625,535.21875,534.828125,534.984375,535.28515625,535.390625,534.78125,534.50390625,534.71484375,534.53125,534.47265625,533.82421875,533.17578125,531.94921875,531.0,528.59375,526.21484375,523.72265625,520.625,516.421875,513.08984375,512.28125,515.0625,520.9375,530.91015625,543.5234375,562.1015625,584.7734375,609.23828125,632.48828125,650.921875,661.33984375,659.21875,642.92578125,617.234375,587.078125,559.53125,537.9453125,524.13671875,518.80859375,518.73828125,522.1328125,526.234375,528.0390625,528.9375,528.76171875,528.2890625,527.69921875,527.234375,526.7734375,526.8828125,526.78125,527.15625,527.1796875,526.578125,526.88671875,526.48828125,526.80859375,527.12890625,527.23046875,527.2890625,527.46484375,527.41015625,527.8828125,527.94921875,527.71484375,527.9921875,527.56640625,527.45703125,527.98046875,527.58203125,527.29296875,527.03125,527.0546875,527.171875,527.3125,528.21875,528.1640625,528.40625,528.0390625,528.0,528.16796875,527.9765625,527.984375,527.8046875,527.8125,527.32421875,527.17578125,527.6171875,527.6328125,526.94140625,526.5859375,526.81640625,527.234375,527.05859375,526.890625,527.08984375,526.5625,526.578125,526.71484375,527.03125,527.12109375,527.21875,527.27734375,527.8359375,528.17578125,528.6171875,529.23828125,529.03515625,528.546875,528.51953125,528.5078125,528.41796875,527.86328125,526.92578125,526.40625,526.21875,526.63671875,526.7265625,526.3828125,526.20703125,525.8125,525.63671875,525.296875,525.375,524.7265625,525.0,524.73046875,525.171875,525.671875,525.85546875,526.390625,527.01953125,527.29296875,527.984375,528.66796875,529.62109375,530.55078125,531.0703125,531.57421875,532.390625,534.19921875,535.55859375,536.3984375,537.0234375,538.4375,539.32421875,540.171875,540.640625,541.2265625,541.8125,542.14453125,542.5,542.78515625,543.078125,543.5859375,543.4921875,543.02734375,543.3046875,543.28125,543.171875,543.09765625,542.9140625,542.91796875,542.63671875,542.671875,542.99609375,542.8046875,542.609375,542.02734375,541.859375,542.00390625,541.953125,541.296875,540.8671875,540.625,540.48828125,540.76953125,540.828125,540.6484375,540.95703125,540.63671875,540.828125,541.03125,541.3203125,541.3828125,541.26171875,540.52734375,540.4453125,540.08203125,540.15234375,539.01953125,538.9375,538.3125,538.22265625,538.8125,538.08203125,538.328125,538.0625,537.671875,537.30078125,537.0859375,536.93359375,536.703125,536.37109375,535.23828125,535.4453125,535.73046875,535.69140625,536.23828125,536.140625,536.3828125,536.734375,536.48828125,536.953125,536.62109375,536.0,535.91796875,535.7578125,536.08984375,535.734375,535.58203125,535.50390625,534.92578125,535.46875,535.6015625,536.30078125,536.2578125,536.515625,537.42578125,538.71875,539.75390625,540.47265625,541.0546875,542.12109375,542.3828125,543.203125,543.43359375,544.18359375,544.71875,544.88671875,545.35546875,545.84765625,546.5234375,547.703125,547.9453125,548.0859375,548.4453125,548.81640625,548.90625,548.7578125,548.12109375,547.82421875,547.66015625,547.8203125,548.171875,548.3984375,549.57421875,550.96875,551.38671875,551.3046875,550.7578125,549.25390625,547.89453125,546.078125,543.26953125,541.29296875,539.68359375,538.96484375,537.8125,536.23046875,535.18359375,535.1875,534.91015625,534.71484375,534.56640625,534.34375,533.98046875,533.84765625,533.6015625,533.859375,533.59375,533.03125,532.4765625,532.55078125,532.8046875,533.359375,532.96875,532.96875,532.5390625,532.7421875,533.34765625,533.55078125,533.6171875,533.28125,532.83984375,531.83984375,530.13671875,526.7421875,523.828125,520.33984375,516.1015625,512.42578125,511.1328125,513.59375,520.140625,529.33984375,543.11328125,561.96875,585.78125,610.3125,633.46875,652.5703125,664.7890625,665.46875,651.88671875,627.26953125,597.2421875,568.171875,544.6640625,527.9921875,519.6796875,518.59765625,521.6015625,525.03515625,527.90625,528.98046875,529.33984375,528.83984375,527.70703125,527.58203125,526.80078125,526.609375,526.75,526.05859375,526.2421875,525.80859375,525.953125,525.68359375,525.7421875,525.95703125,525.671875,525.078125,525.02734375,525.45703125,525.46875,525.59375,525.89453125,526.34375,526.47265625,526.5234375,526.96875,527.1015625,527.140625,526.60546875,525.90234375,525.7421875,525.7109375,525.68359375,525.75390625,525.98828125,525.27734375,525.69921875,525.40234375,525.72265625,525.23046875,524.97265625,524.8828125,524.7265625,524.66015625,524.71875,525.140625,524.33203125,524.26171875,524.58203125,524.68359375,524.984375,524.89453125,525.2578125,525.6015625,525.9453125,526.578125,527.1953125,527.17578125,526.3828125,526.15234375,526.25,526.3671875,525.71484375,525.69140625,525.41796875,525.05078125,524.3203125,524.6328125,524.78515625,524.53125,523.875,523.83203125,524.3515625,524.3671875,524.58984375,524.28515625,524.55859375,524.01953125,523.7421875,523.98046875,524.31640625,524.3125,524.421875,524.29296875,525.05859375,525.40234375
