190.60000000000002,275.97,356.8715,433.727925,507.24152875000016,576.8794523125001,557.465479696875,542.7907057120312,532.9947454264297,527.4314044051082,526.4219106223529,528.6447877068603,529.685822306361,529.4410664766444,529.5187504241337,529.2143831231824,528.674759498141,528.473260908577,528.2338889784661,528.9942478533751,529.1204729819128,529.4251684889763,529.4876480394346,530.5369286828918,531.2217766976705,531.9104002554558,532.2709038917786,533.1286171216385,534.4465686675283,535.7510866682965,536.9246211697653,537.8739101240498,538.9937598124361,539.6005026778962,540.4428059773778,541.7082200119238,542.8690400698158,543.4192835725275,543.998007384523,544.4781321491917,545.076365840601,545.707958549167,545.9660126251994,545.838676172566,546.1466427331638,546.2632172039652,546.6038746357971,547.1590788314654,547.4994255211521,547.1163880537229,547.067900787695,546.7276666085085,546.9214770098729,547.6333571009525,547.7266605219625,547.7961468985505,547.6597345930077,547.9131311937828,547.5635484845872,547.5670389154054,547.2750199957334,547.4010763408742,547.0140092534809,546.358965350496,546.4191945072005,546.4765867276108,546.3165083910169,545.6707367885098,545.1379004117583,544.8989536586953,544.4749657011205,544.175046752445,544.3821198343736,543.8465506820805,543.4111181685644,543.4855099430708,543.3349827309734,543.776985932047,544.0072426271631,544.099208029909,544.4648035368418,544.3158388571533,544.4667960508443,544.3323055449043,544.4160523990174,543.8002101805621,542.9334398483759,542.2025597988148,542.1157716114162,542.2265983080906,541.9360710126371,541.9292779710332,541.5794860649004,541.5106397515962,541.3408963445871,541.1851814427623,541.522725921256,541.343053523745,540.9548751508028,540.9826633808424,540.8005750290296,540.8198053497163,540.4549513782932,540.3993564855658,540.3271324188277,540.3599089669284,540.8819422700334,541.0788354240176,541.6476412217314,542.085226984923,542.0973222566183,542.9104515921339,543.409026126029,544.7925165909282,545.8352728224684,546.5477705305912,547.2252481168924,547.9095082906546,548.1844841824234,549.3148858028485,549.8409051538296,550.8762484226676,551.8936984073787,552.2944889015425,553.5889886655867,554.7752835224497,555.6285646040187,555.2909487949512,554.9210862755726,554.3897564068711,553.9497180198068,554.390996294939,554.752874710393,554.9797784146209,555.2768438076685,556.5324894376286,558.2033508667375,559.2127331381475,558.0897402167599,556.334242126653,554.5813722107038,552.57892807205,549.6601492117844,547.8377784081024,545.3503764985354,543.6995697799413,542.6436599014794,541.5404233100078,541.4464096050967,540.765978045247,540.7951979679115,540.7404165585131,540.6355787256612,539.9808209548786,539.9541003873895,540.0946942702824,539.7297194551638,539.5802543103313,539.3330205310978,538.5654105522867,538.9348450440419,539.0928375053538,539.3246816028444,539.2374602382188,538.7422382528628,538.8333968678339,539.2384692766443,539.1311876880799,538.740862383818,538.5656922765381,537.6745195753543,536.8324634399783,534.2527637318115,531.696684929625,528.6488938023348,524.7447337260448,521.2912230185103,519.9682850395836,524.0825089741952,533.7632177719665,546.407501573485,564.7243631811131,589.8527061729831,618.8584851163127,645.9196863092069,666.611862882345,676.201644816902,669.6277807351127,646.139027007006,613.5749999124713,581.392234232308,554.9532156648099,536.2156371224146,525.2862443030494,522.4288834382473,525.2861892619587,530.5914915104761,534.0095777181926,534.6198806884039,533.8531988691361,532.8819830975916,532.2021934058101,532.5216583110434,532.0960542814008,531.8222456017509,531.5237932651202,530.5917027567436,530.372227289197,529.8796988402893,530.5905166123449,530.7521030618152,530.8906875719805,531.1757383312186,531.3355627791176,531.7627695821761,532.0041569336847,532.2415542400911,532.1740109066857,532.1240972779124,531.6846705529724,531.4885755044328,531.7143545758953,531.9407145591051,531.8523793764841,531.9659652715557,531.9519005356265,531.9287342840668,532.1180152986583,531.5091502616806,531.4263117174207,530.6532943951274,530.6182247021522,530.7837501812481,530.4504634371185,531.4033977783466,531.1045434753005,531.1819810212918,531.0537932053346,531.3402910541305,532.2957996732798,531.9511795785331,531.7088477733716,532.1825044357677,531.9260688742459,532.1967799832402,531.9017309677422,532.6042033982817,532.4594356170362,533.0455890579728,532.5896130487864,532.669971395509,533.0315593741207,532.8101915753288,532.6926537774141,532.210300541442,531.7292661668092,531.6763014282443,531.5440643255381,531.9073706880276,531.4466348424969,531.3848181274443,530.8020405294125,530.945753574354,531.1756691119133,531.1122541907189,530.8289732233079,530.3567654685147,530.4790292215596,530.4023654391992,530.7410306228351,531.0595918012292,531.1480608723332,531.5084961021422,531.6570227581132,532.2942898921674,532.4166269287008,532.7487751723272,532.7687394573275,532.9057272895682,532.9432920629955,533.1108419544541,533.5761312031664,534.8347634016244,535.7314622044096,536.4901754586676,537.712831288884,539.3827318221624,540.7924017912126,541.7945198717332,542.291366988367,543.3013074118821,543.9218836057322,544.9949260165537,545.6847998052866,546.6902858086089,547.2703398675969,547.5718882448111,548.1893880128572,548.329664913042,548.9974216576543,548.8820648652019,549.0014786153215,549.0299990967962,548.6879685425993,548.7700533611214,548.6814217759479,548.5914539304108,548.7119551646563,548.6278573612632,548.6308629203301,548.8378224423695,548.6300024090485,548.9280749851166,548.3172689940936,547.3327984124521,547.0977016378461,547.4847076780721,547.5419724146211,547.6112775431458,547.6465771156932,547.930888180531,547.7892288533967,547.8740027946307,548.3574012756302,548.220095089006,547.4914191903403,547.71339263985,547.3171844505271,547.0450253677325,546.7106441631272,546.3861167094212,545.8413818334673,545.6349823737863,544.8190924776233,545.0303891221288,545.2144018741786,544.9729876159407,544.5164073268172,543.6723360791657,543.1296738990884,542.7247096602405,542.6491942709374,541.9653839381876,541.9929351076191,542.1769051561964,541.7245435933409,542.1745518966859,541.7982840153984,542.506639011538,542.480953816342,542.1657513833347,542.0436909938352,542.6502340389776,543.3076365377985,543.3675866614856,543.1232550192284,542.6753798374336,542.9437953952538,542.32911732744,542.7780432879579,542.7075204566344,542.8283071847641,542.8206608173975,542.7268175462904,543.7069325353478,543.7604880729784,544.0078396921612,543.9488630667913,543.5924529543215,543.44917118392,543.6620592514914,544.7669806925658,545.3290236425455,546.0600156137577,546.536637480786,547.4822641659428,548.5912539202202,549.8000402588374,550.5764894280228,551.3506657373097,552.6099643244834,553.5535793165564,555.0054630467396,555.7451919073445,557.2867567833783,557.989952231075,558.8209528357453,558.5575841597858,557.8799781041334,557.6732387942941,557.1539146937482,556.8957165706147,556.0919783838712,555.815258672667,555.9184946442404,556.306231851743,557.9486159938432,558.7959710226819,559.0607713907413,557.6984957548375,557.0094956993076,555.7743325069295,554.1830466812751,552.0136928983454,549.7660468229653,547.962669269559,547.1150105910463,546.2479766868405,545.4447301865623,544.0731783221514,543.457821747192,543.2830641233104,542.5746614466972,542.5583272087043,542.7026473575972,542.771173905825,542.3055062978933,541.5543841891642,541.3053980520408,541.068044509874,540.9497746522601,540.3408446149384,539.6390776990861,539.33484302359,539.7333707750126,539.5001044617557,539.972587971281,540.1910008034638,540.6634046482449,540.3969765670121,540.0637962774123,538.7356116866293,536.2974605008619,533.2921375159921,529.3607008726048,524.912514657325,521.5700787383294,522.4283553857445,527.3218106415003,534.9203269852248,544.3423456795939,556.4708541284804,573.1258153589728,592.7909423603113,615.1174857743708,636.9076278349137,657.0793637271477,674.3489382472142,684.1877821028021,680.6179401156776,661.3429173986123,631.6211529204273,598.9940634607633,569.861807200086,547.9781059452218,534.2100976537445,528.5667386409879,528.7194593549598,532.3331895602499,536.4096204422418,538.3880447173908,537.9791473642085,536.8085269280475,535.404073549393,534.8505293499359,534.5284839045512,534.7214619451933,534.884346216144,535.1805552517392,535.0917311666219,534.8796710757877,534.3621117172257,534.180079228624,534.4152925780002,535.1535557116871,535.1504644844338,535.3369248140016,535.8881841591628,536.5027789126357,536.698404595904,536.6211621516932,536.4476272683303,535.8920921456138,534.8918967462912,534.4724408546083,534.5837390416732,534.6856101971741,534.2737110507319,533.3546301054761,533.3314934375169,533.5885408083714,533.9383007200365,533.5756661938933,533.3105684367354,533.6127715201724,533.2987076160396,532.7131992756562,533.0744543478752,532.3995149401761,532.1450676150041,532.3184528102624,532.5674655505513,532.9747522368065,533.4797373423598,534.1257262222508,534.2266932918885,534.1312812678073,533.7530904819444,533.8141735696875,533.8974517583212,533.7088654815176,533.534756872036,532.9645830918248,533.1040084613307,533.2395167167485,533.0724134688271,533.1042360694616,532.9257621095904,532.3277031587021,532.2665184238336,531.6151683384793,531.3880305949966,531.37384086872,531.0514369307634,531.0152502421603,530.5778136512441,530.9296813856058,530.7525988460754,530.4836609472076,530.7120497463854,530.8272097711742,530.9147399651774,531.3154870361991,531.3873426266928,531.1421585427186,531.1206531029019,530.6059809363155,530.6214188877586,531.3561222951806,532.0576833117564,532.9119070733044,533.5223443747842,534.2765262028609,535.0937708371057,535.9068884100095,537.4144281550967,538.3893021010072,539.045954214696,540.2074828141042,541.0517972152543,542.1945517749921,543.0555455939973,543.3222334193479,543.8084194591153,544.1283726268647,543.6745438562841,544.0005442522196,544.3532943193085,545.3017412743104,545.8270751835507,546.3421400557163,546.6087602457449,546.6783494460685,546.5620966897307,546.4990789189594,546.2654787321891,545.6693117983655,545.2162842207345,545.4893874820011,546.1430229423875,546.8608257412162,547.0310583907648,546.6629710611448,546.4906367191243,546.3405742572683,545.9306966915241,545.0772031440088,544.6748959063466,543.5742996640864,542.8201165168382,543.0961394038599,542.937867268243,544.0448340620314,543.7763371542471,543.4662352797391,543.7339293415941,543.8020398447072,543.758831215884,543.3731313581914,542.9932916479942,542.9169388295816,542.7577883551821,542.4100009296584,542.3774424439696,542.1272268896807,541.3705301275963,540.2478505626958,539.47334745232,539.3201801261868,539.4730432420758,539.1057524244563,539.3189913096132,539.9654342722674,539.34082993127,539.1397974410158,538.6564597310688,538.2789243657382,538.430927712932,538.0076530408987,538.0743118854174,538.4275861631972,539.0390298415908,539.4010245677982,539.4525197250549,538.7802763908471,538.0449781655755,537.9641085654566,538.3178546292634,538.0720131261901,537.9410384561335,537.9830003528691,538.1860992435043,538.674999709602,538.9571424555852,539.3128859891153,539.3442936124663,538.9762289494863,539.2367224641872,539.008636326458,538.5060616329145,539.0464028507243,538.7612973888116,538.7720439668453,538.3952778917123,538.7259458134496,539.5149516044229,540.0915241667378,540.5250128278417,541.2373643847918,542.3952600601378,543.3117943478034,545.0219522106345,545.9754308084397,547.2029099094096,547.5046326331787,547.9491640045268,548.9172955216907,549.4225283561377,550.650173478753,550.9778103002857,551.3041514169304,551.4364020463103,551.9104467200791,551.7860508018822,551.7292569357257,550.7916846039536,550.1173079446024,549.6832626496878,550.3946218532074,550.5641933006411,550.7224464823954,550.7259083884733,551.0954783662798,552.1248675804502,552.838355294088,553.6246471944156,553.4795371588147,552.4418557202976,551.3745368525969,549.5120533889894,547.5783684842443,544.9806824197528,543.0056251567062,541.8774366848855,540.1522916932711,539.0202797780571,538.2481842133666,537.9848091236856,537.6358499253367,537.0479292633142,536.403147384812,535.8340040044743,535.6547130149188,535.2712178203572,535.4894494256062,535.4673734174917,535.9141621158576,535.8101542102885,535.90238215052,535.9708239340118,536.3467552085917,536.2027861190365,535.8883549188777,535.5844448834481,535.7003417468018,536.1138658561622,536.4255103237838,536.6143741135464,536.4780731538128,536.1333917402947,535.41173924062,533.6468455713971,531.5857788090165,528.4372085742428,525.4392518032215,521.573958800075,517.6658478221024,515.7648977095671,517.1559417645395,523.3200051050247,532.4259674399345,546.0833670079417,565.5624910486497,589.6726113816956,615.6467779008378,639.5304392610471,657.7752156699914,665.690623236889,658.6842166274769,637.6336363651878,608.8342934419704,578.6691007329242,552.1244064797776,531.7027173176332,520.2517922831254,517.7208844872285,519.9765549349655,523.6111822248636,527.5368434376093,528.8451371316105,529.6154698891861,529.0207406190884,528.4685313348822,528.2256638793812,527.1912228572926,527.0739185710086,527.1009961369174,526.896983361026,527.4755607597186,527.5130659157019,527.7969737627814,528.5608210031928,528.4878297598791,529.0082874399363,528.7316511059255,528.8707218464142,528.2170344422327,527.4342237702807,527.6869040697605,527.8529732382692,527.6969071316521,527.5555978673904,527.3886696961324,527.1909473998398,527.1157452333358,527.1526066335825,526.879821658486,526.7136104689312,526.1473634302912,525.4995426287687,525.8803527589971,525.2439654527263,525.5257582630144,525.4851508733102,525.3182615011592,525.2273255575396,525.5599769176126,526.1441763443681,526.8132554403005,526.746850211951,526.6754207764114,526.8030160154678,526.9408640605751,527.2010296747646,526.9816409630415,526.5699014254869,526.3751773930333,525.996569324155,525.9437840609761,525.6066463416654,525.8753960727341,525.6101213403718,525.648374143005,525.2657839020624,525.6996839100082,526.1950320315909,526.3790502336481,526.4406037889844,526.4009923066853,525.7442318864541,525.3420044876319,525.7846558648298,525.6143755832707,525.3556869935563,524.7079522592129,524.8597662405749,524.7838781529279,524.9339170385228,524.3679399657603,523.5173273171501,522.8768585642533,522.2760039480693,522.1013976583122,522.3430236273227,521.7442694442448,521.5329223378899,521.400119149208,521.0439133891513,520.7967876026092,520.5740994038449,521.2326079058649,521.1476236274661,521.5602484035531,522.2344316528331,523.9625494503218,525.793126947998,527.4651009958915,528.6492271274701,530.5947781912743,531.9767608643523,533.5760502936507,535.286904126368,536.8958139698443,538.1834846277256,539.304049305903,539.9376848838255,541.0196031543168,541.5329682029193,542.4011104912656,543.0902291980885,543.4009202034792,544.0277584374967,544.5773506733375,545.1251315498166,545.788930496889,546.053995431949,546.6213416705257,546.4916625088742,546.9959469170973,547.8024061487333,548.001732366141,547.4043455194314,546.9651953269862,546.9415186860806,546.7442400976314,546.8971484001866,546.7523775984843,546.5849759945315,546.1039869611543,545.9458635474007,545.5857823749122,545.6513506761759,545.4064020222912,545.1653307209032,544.712263532916,544.77394353364,545.0145354757037,545.0463762357274,544.9643775250555,544.9744251848479,544.8613171022514,544.6569484238207,544.2748277764149,544.1134051993805,544.2559538156643,543.5918773841234,543.65534937003,542.9054293227193,543.4738992454043,543.9058745431029,544.123378506731,543.8968034506007,543.4847307465722,543.6557656753795,543.6466723538806,542.5596324633418,542.0378197655112,541.7307689497657,541.218467039606,540.7403319713947,540.2856489905191,540.7993481641603,541.4612717442277,541.3747466045046,541.2669326262596,540.8406025935165,541.3128549133667,541.3871795759063,541.4908841843223,541.3850773053315,541.1791700713778,541.2622416974849,541.364772358279,541.6658927191603,541.5571422924183,541.3485390430642,541.8400705944797,542.0111791496299,542.5788588100623,542.9332105055173,543.1644070948623,543.2736136922724,543.5019365373828,543.3273986679951,542.9899716750986,542.8871336166195,543.1009972905317,543.6096281106187,543.0042435319568,542.8204012887588,544.0288798080757,544.871792498503,545.4832527381044,546.18957150673,546.6303051079914,546.9398099170297,547.8942634115822,548.7431398659282,549.5801455095369,550.4106168093966,550.8216012243263,551.6275116589615,552.5408492465924,553.8509637775594,554.6374228641583,555.5260825614201,556.1908584945654,556.7626911527852,557.3515990574756,557.3765672934798,557.1396100720137,556.6589336964839,556.035529936388,555.371887997208,555.4708735502213,556.0661582373842,556.3198308291156,555.6367859724842,555.0567231706794,555.3724814120058,555.9774010189167,556.9818388798399,558.3487384773038,558.8131408520628,558.3253199679936,556.4776780401942,555.1526641891304,553.0441229236658,550.8093537013476,548.3095430588834,545.910331904339,544.1386992111318,543.3893974600317,542.7721337332133,541.9739947316201,541.6907721479832,541.601750135801,541.2285975895676,541.6366375830906,541.7934123905969,541.6024415076481,541.2068580396649,541.0266026444715,540.4367023917264,539.7966991512948,539.3965348132597,539.2068301479792,539.2068315425635,538.897820097659,538.8747642123623,538.6208609593089,539.2596446520064,539.757003926805,539.3294953075931,538.9079115470963,537.8062541803595,537.046984519307,534.9576175259419,532.3975868459853,530.3441822690656,526.7723687329672,523.2240630053367,521.4152090810351,522.6923295032806,528.8775923704158,538.2509218653482,550.7769942087292,568.4993476485596,592.2451407201834,618.5675001593384,644.6830047698922,667.1614006246649,684.6421803038681,692.7350386711026,686.1105437735566,664.6333915928459,633.7358722516981,599.7071486703464,568.7539002520225,544.6529571729765,529.8258365030056,523.6662142574976,524.5696971572075,528.7265697328646,532.4279362588225,534.7391873045301,535.9935197644539,535.677154489106,535.0217816225112,534.5070210280288,534.1030667895686,534.1348728153166,533.9278051627734,533.5152726290901,533.8905980787611,533.4214192262245,532.8555016043917,532.319470164938,532.7998869148297,533.3356562005428,533.0634032944536,532.6813040910422,532.5900139667099,532.5764867766211,532.6876567835316,532.0200567543822,531.8722240813856,532.4126780818685,531.9215448761106,531.7542919711361,531.5009602117559,531.6269150388873,532.1391804910122,532.0528553705549,532.3462898458326,532.5166899520979,532.5659034650807,533.0189540437711,533.1749653661332,533.2188598663543,533.4752313653282,533.1273042946667,533.5992342531874,533.6702202427165,534.0454574988875,534.2041276172607,533.8676828046641,533.2306638791642,533.0490923978654,532.9801487901079,533.233414225547,532.5819498951327,532.2462365406092,532.195457907537,532.3381396320533,532.4702400899561,532.6083987967356,531.8070763516555,531.4290343611033,530.8673555384248,531.0408947431064,531.0123620104488,531.0921638497632,531.0279094748578,530.8479657191701,531.2489352101327,531.8385331867814,532.1972246279647,533.0419715890548,533.041268483345,533.3316033451362,533.227469938386,532.8580231008057,533.1249831771636,533.1208325977583,532.6168543920376,532.3525918396924,531.3963357446271,532.0694201124361,531.9221982656725,531.5821299822767,531.5338662027648,530.9748024846111,531.195879147612,530.9395561958531,531.0886882993441,531.0133603834909,531.1393856744544,531.0311565149623,531.3393926465948,531.9194008240577,532.277865197822,533.1146399571054,533.715877242973,534.3816412065723,535.1295287785736,536.3690223808478,537.6644645216965,538.936973293467,540.5759184909423,541.9662046267238,543.3243708343161,544.3766034116427,545.8409964671455,546.7957953084615,547.4848014675856,547.6088716255424,547.6946465859812,548.2287444272642,548.4093570292582,548.0286789432184,548.4014850694368,548.2618543972421,548.033494006679,548.6432565277083,548.5315615527859,549.1064174223075,548.7711708046638,548.8457049842928,548.7050944354121,548.402002540027,548.8084804906648,549.3233773372469,549.2957670106179,549.0732639093015,549.254855435607,549.2122127908281,549.39202617582,549.0885937338913,549.1989523977276,548.5926679733063,548.2257773464213,548.0750991186417,547.7409454715007,547.6083278846202,547.8878591102756,547.2230995534271,546.7732334430768,545.9383267268552,546.6284576640874,546.777451175114,546.1329715718721,545.9874779709497,545.5267657445561,546.6473437936711,546.0463994871918,546.482952071588,546.8654530466022,546.2215542928197,546.5868148654064,546.5898413118196,546.7626692205884,546.5486833631383,546.2645218473114,545.8623734695869,545.2985955393779,544.8631578279999,544.8581333976293,544.8426608959048,544.1137539434751,543.6011849197807,543.0860554507607,543.1749105696225,543.2590717110229,543.038251170267,542.4920263089274,542.24748423947,541.6894128000345,541.4636876885139,541.5534568896394,541.3276966036709,541.5859130889337,541.4189916464604,541.5325127041392,542.0290714533579,542.2052907251721,542.6614110190968,542.8076361225887,543.1382038987824,543.1579193390503,543.0014769447655,543.2616676337859,542.9316548030514,543.5254538690283,543.7060913705161,543.8786827689427,544.8348224777338,546.0561647355364,547.2999392389122,548.3112149704181,548.8809587904229,549.4308449893489,550.2010438637681,550.7937999073566,550.8191068739343,550.9937122787585,551.5880746043416,552.080213123592,553.1862546606009,554.0666319229387,555.6042556704884,556.3737285009021,557.434445806074,557.4667341719498,557.9527101963823,557.8584062827101,557.9456987520991,557.3671002395392,556.9704675178659,556.9952808505701,557.4431523178608,557.2639150161033,557.8980042029029,559.1714590047349,559.7614094303915,559.2231030014004,557.4341054672234,556.1255959446673,554.2142163575791,552.162078489937,549.6420450369596,547.8210979351816,546.2017483117838,545.097940693428,544.5537544766356,543.7341706773007,543.1295643952835,542.7641410722786,542.5360214342537,543.0641173972124,543.1385992511836,543.0683778224895,542.5714371511292,541.9810723471867,542.1088198015399,541.7565846813235,541.6256854098166,541.0978200304503,541.2715008864842,540.5069794595194,540.4870714766204,540.6505471368555,540.2993040505035,539.839229849501,539.11084340135,539.0806502042585,539.2509712678767,538.0209500613256,536.4348677607844,534.0050858652203,531.8603737420269,529.8213875651383,527.4928667502752,524.5192709158277,520.8150507580756,517.7745525134328,516.3788435748625,516.2509707743764,520.1130655731712,527.433375840304,538.5024595861928,553.6660642325546,573.3017031996701,597.8491665784054,624.2623615281436,649.0209122437516,668.9949896108739,679.8285433419578,676.7022013348435,657.2595495970216,627.7096901935776,595.1752512960863,566.9662382118257,544.7093534683323,530.8089958616579,525.231523548426,526.7554318806837,531.4764228514538,535.2509136194724,537.5238356119153,537.4880936244024,535.8752651206038,535.1192734586077,535.1371309282499,535.2428200628111,534.6568708402663,534.598431979473,535.0622736365295,535.0651236276335,534.7687239926643,534.5924287961716,534.5956508983763,533.9957899524311,534.1491141366362,534.3949146111859,534.5136050802598,534.7175462660556,534.6114514976716,534.8806684204096,534.5440907062209,534.7366319014691,534.7254805604086,535.025083845691,535.00440222829,534.8982155378959,534.8805092963123,534.7733154265702,535.0709236832621,535.1686316913834,535.0604202182288,535.7523099842122,535.8087199498173,536.056949723655,536.7076484216352,536.9306975851225,537.0371837167779,536.5729400301497,536.3347290261331,535.8208400610091,535.6651804790405,535.7284563343445,535.6938927034663,535.0378450698004,534.902689267617,534.9485968072865,534.9844259908742,535.1216275080476,534.6502407678187,534.3696209829178,533.2962743971527,533.3788905176594,533.4591672913202,533.7422903021566,533.8876878254396,533.4117844833136,534.0060089790056,534.3746530559381,534.6288787677073,535.0845493444298,534.8247062684803,534.754060179222,534.4166576192112,534.0145573910474,534.2452734598805,533.8872372541081,533.3341107048266,533.2051081785463,533.0656856505796,533.3131292376029,533.3597364487168,533.2861114889865,533.5885114497785,533.5693412862169,532.944158504435,532.8626070410934,532.9874635114745,533.7023959103502,533.6967016873215,533.6903336672663,533.5530249091248,533.8185040157232,534.3769519905107,534.2432241865027,534.0158980615436,533.9996198418298,534.0772900951945,534.5643507912209,534.7549808511855,535.8293930179512,536.638718270131,537.306763348716,538.2452896860398,539.6612427412989,541.5159296467932,543.1316028153511,544.4069585880901,545.3519488261213,546.2966158691174,547.4648472127265,547.8674013344298,548.3306114084759,548.3344287674565,548.7853047703898,548.9608703253261,548.9860691696961,549.4301357779328,549.8751595594599,549.7981230198598,550.2474821073862,549.7831515182834,549.9432974008539,550.2176393197078,550.1005153316955,549.9853957161038,549.5985000356678,549.1077326097986,549.4495108493513,549.8879172728693,549.9985471758106,550.3978896028252,550.3579201244672,550.5954107487338,550.8381157537647,550.4906058297199,550.4660028970245,550.4625972323147,550.3573633769221,549.8692657455126,549.4177082459253,549.5713531251151,549.0160856137106,548.7884111946407,548.5668588037547,547.8319791508427,547.4112656055968,547.5192699815727,547.6941107631797,547.6488257847527,547.7947274357027,547.3965900214597,547.2973238006666,547.0084211097119,547.0427055923853,547.0730116020036,546.3090973936887,546.0634720250771,546.0251646138568,546.1743274386494,546.0177463463361,545.7705096091196,545.7974389983481,545.5107406496845,545.8364618478931,545.6533551274309,545.7715746883762,545.5715214344134,545.4828173126102,545.3842134794637,544.8068258978852,544.3491523593626,544.7202734758132,543.9628358737432,543.8388349456866,543.1161038723756,542.9006399736511,543.3730655929367,543.5404259870804,543.8615464814136,543.4604109046271,543.6431955530145,543.8060677740464,544.084417664991,544.1572180810953,544.3424345011113,543.6983333212871,543.5955764328735,543.9061009999322,544.015016833185,544.1221268955805,544.033142275857,544.0164018281287,544.1953605583658,544.3808975804443,544.1626035430812,544.3605797107062,544.5442078389638,544.617817538422,544.9966946894192,545.1659048339704,545.8157397694259,546.4429817664899,547.1480430701137,547.521531793529,547.8952899383236,548.6588206831059,549.6166666374219,551.0579823938754,551.9624854276872,552.6404377459794,552.8031803555965,553.095962371972,553.7219975852445,554.1887968256761,554.6774812557766,555.6756290802867,556.2320066440523,557.3752044304482,558.592544088188,558.7723567250624,558.9676129515982,558.1030137580326,557.5094634023337,557.0027504537393,556.8822401354615,557.0767459649417,557.0712893142745,556.8228755364624,556.6572049297561,557.4744822059552,558.9448701024306,559.8514638955561,560.112455166492,559.0479761849906,557.3284376222288,555.6357398514149,553.7011963639659,551.9087097405454,549.5188970118427,547.2953509705002,546.1970053030866,545.1689420305031,544.2955547471763,543.2762124968446,542.1883467225945,542.0436969349898,541.5513623533946,541.23224133725,541.1854070077463,541.3899472822014,541.529867254221,541.1555587382594,541.1753489190161,541.2781935399278,541.2735542133189,541.479373866763,541.0818985361359,541.2855815462419,540.9800699148807,540.6949760961331,540.7239050019923,540.4616784452309,540.3926894497761,539.2373340545994,537.6244708476133,536.3779961100394,534.695291554637,532.7836108991668,531.0640648266972,529.3727282880923,528.3853154160686,527.4849494507669,524.9454665559604,521.7373737731208,518.7037083257997,517.9371593239142,520.559567128522,527.3058362446342,537.8878177602005,553.5802955608465,575.8364661990942,602.1415008553352,627.7624041689944,649.2395757727764,662.5719878721477,662.0224032565827,644.7131064037083,617.4845261262894,586.8984200284249,560.1154778156424,539.9383033184677,527.6425083153733,523.3960382197902,524.4004626151152,528.3253604857807,532.3148663522736,534.1960382005834,534.1683617063228,533.6297455319963,533.5682813861522,533.3061353411337,533.0565718916907,533.2135452071352,533.1612860320946,532.6847090070897,532.3288876260428,532.3777500117974,532.611691105792,533.2417838108593,533.837758921921,533.8801064261795,533.5025454861726,533.4463057124539,533.4045749821207,533.2964354235577,532.5235015984757,531.991331839861,531.6668925221766,531.4558631816906,531.053298771712,531.2654556043042,532.1283579040128,532.2215066008051,532.1937758968738,531.9568802611147,532.4117011866444,532.7543889075274,533.5230873573519,533.1580083195244,533.209796698392,532.7471508765279,533.1303783920339,533.2115789178085,532.7271543397857,532.8486970387728,531.9667520217536,531.8057719644924,531.8720022858695,531.8389811174663,531.6833897785823,531.0416551415917,530.8879099855999,530.5338030845445,530.6007130446108,530.9626264482536,531.3986646147698,531.780814141111,532.0361689333356,532.161050640896,532.2830337610817,532.5170133954405,532.7610959564068,532.612081865642,532.4832862190267,532.4671744401201,532.9579674061682,533.0359197056318,533.3221785181705,533.4866736855441,533.3365043122183,533.2930378186135,533.7762842979911,533.9392660683732,533.5084116908631,533.7073247905971,533.2887837666781,532.888996469275,532.6333608607107,532.0986561210939,531.8691438995822,531.061052944133,530.1724394852602,529.6082673344611,529.0595220107735,529.2114787162895,528.8443619754541,529.1551965238881,529.3060586719569,529.2211691050819,529.1130867503664,529.4180063486626,530.0893241300023,530.2426177496966,530.4957897958095,530.9320587612732,532.0411101607278,533.1099549701245,534.5589234281184,535.6431081441974,536.5857422267779,537.5030580535029,538.329960658864,539.568960374427,540.3184585271116,540.9846910079658,541.1647435689065,541.5816592931362,542.3190743614227,543.6815686620728,543.6134131553247,543.781977047957,543.9511153740043,544.4326425699609,544.626964159534,544.879694384661,545.7163803231942,546.0196601594323,545.9162329201608,546.0420534026509,546.371298940495,546.4967187127033,546.857701793228,546.815799711538,546.7708213719692,546.3343829735035,546.336228771853,546.1442532688955,546.079925695112,545.5167193959334,544.9794244947351,544.7471724186736,544.5266252363325,545.1075066379608,545.4561275908183,545.559157181074,545.330170546757,545.1010206403528,544.672300870152,544.4940611585423,544.1421644801561,543.6130141152022,543.4988719367798,542.9789793719583,543.3636454468681,543.5201662324519,543.651266144837,543.7493535433553,543.8368294630266,543.793936958473,543.1724223828928,543.1898095753709,542.5128824038442,542.2747059608198,541.35281213593,540.7748683770571,541.194746077349,541.29449925225,541.2554184098299,540.8063827873792,540.2337042548068,539.6607624609194,539.4374616417406,539.3303135222664,539.1265687666444,539.1105594676811,538.9667167070374,539.0014189947316,538.9232211270819,539.0435757468413,539.1477253978314,539.3458671013238,538.8269095816095,538.6356350522656,539.1500143560065,539.7446924255482,539.9148440741624,539.3863952255206,539.1584209433248,538.8322816487719,539.0481682841337,538.6829944912045,539.1445869703523,538.8566773831107,538.8717645611214,537.969790415504,537.8237093089355,538.0666735680488,537.8205692381641,537.9723746454115,537.9173441411968,538.1199664549121,538.9051535976134,539.4632295961351,539.6810965782365,539.7956604815953,540.0017446645753,540.0076557540923,540.1525306462684,540.4180655937616,540.6812171429854,540.8369393099159,540.3951795776488,540.0758033864709,540.4796397494608,540.376561041676,540.9917938467414,541.1840511199002,541.2446075427877,541.6861673349716,541.8258409556961,542.5533769599951,543.1752978043324,543.875735470111,544.5441790737448,544.8012784868062,545.4525066102506,546.5075501277377,547.2409375115675,547.9726774094947,548.9012524927072,549.5962537924121,550.4890664333041,551.2899906180259,551.6875379627029,551.5017949350424,551.3717678129258,550.7829921119,550.6682958279702,550.299380567473,549.7687884372344,550.1554387621247,549.816255214665,549.3645920595267,549.1297772479489,549.2882574139251,550.1122839650905,551.0144417049423,550.6545323804283,549.6900353643832,549.4620224585615,548.2533342063297,547.1462816942678,544.9396896948015,542.7254318290829,541.1736620058479,539.9880800284835,538.801342737376,537.6185896852204,536.6846446856995,536.0866840428687,536.0410329410176,535.8383852953909,535.5865331674902,536.0881359933767,536.1179614279928,535.7163975587367,534.7326293278508,534.3879171262276,534.2478479282908,534.1398623315451,534.7387672863674,534.387648799986,534.8048978263793,534.4840487913715,534.9722387482176,534.930619927384,534.3210272953331,534.0243583705658,533.6633853433565,534.3044185157571,534.7378095273801,535.1474500473803,535.3061289097781,534.6420403828174,533.1931076308443,531.4486731750901,528.2131299927046,526.5598459954383,522.9971601411553,519.1794041532384,516.6800893271187,517.4185185195174,522.5582490931766,530.3583289382898,542.590270498433,560.2197271811733,582.8427452884705,608.7715339500229,632.1608697071806,650.0707426687361,658.296719060221,652.3928694662686,633.2153632573786,606.0931717920108,577.0965566877692,551.9452659868176,532.4628386404877,520.7593401817769,516.782141335557,518.7476928583797,523.0651360498491,526.4091425466975,528.3118273513871,528.4342029929064,528.151599910039,527.781404557456,527.8455911320757,527.9737687028068,528.0906716352358,528.3078482031194,528.1000357884653,527.8841042269148,527.6821785721729,527.8967580787047,527.4064537565312,527.2515234788606,526.7939490943409,526.5484568509695,527.3051429370297,526.8347236941136,527.1633101972344,526.8677208613155,526.864032272967,527.448253501867,527.7410979736253,528.5957792596496,528.7241558065288,528.5313340592681,528.1479689699531,528.9129831965488,529.3543889354025,528.916458451615,528.6068433193606,528.503067856356,528.1853129120359,527.9216964262616,527.7933310517186,527.8494874217133,527.8873552165958,527.4181408485837,526.9564994517564,527.1047593004816,527.2391878880435,527.2697028647269,527.0005854823205,526.7214632506335,526.5332150606898,526.5617922726793,526.0956620534474,526.2543640940116,526.1916751634269,526.1181645677873,525.5389170924324,525.8900608514448,526.400340911545,526.5930420706682,526.0729737253062,526.1752332674303,526.5434174586802,526.6107496283186,526.7002291924799,526.7948698363892,526.8587750308351,526.9245979426648,526.4055389184657,526.2157994539584,526.1400209408844,526.2727633856597,525.7020639679184,524.8631906666558,524.2403080792462,524.2390826479818,524.134129562627,523.1410612537785,522.9691113894855,522.7638153533441,522.0376399896392,521.5477121225563,521.3770329945598,521.0652344075208,520.760428256619,519.9605976114551,519.6644497303644,519.6586128499741,519.7445338572032,520.3105688847193,520.1330618533142,520.4244386412213,520.3864391956785,520.8500478783931,521.6947721773338,522.425562012703,522.8109370047337,522.8916120865579,523.5663534420139,523.9305381638329,524.718749864508,525.8040904719177,526.8544327985585,527.8562917629584,529.3417948469113,531.2712320127573,533.1436079053449,534.2766320336735,535.3055220719177,536.8330605564697,537.7584972709917,538.7341340080802,539.5546077029434,540.6907089194799,541.2214495771018,541.6020301260703,541.6098534833163,542.0660675095545,542.5404945192238,543.1480052392368,543.35167745613,543.064195089627,543.4914780093114,544.0202074843235,544.3462218360686,544.686311006227,544.719579328722,545.1368101167675,544.8545435113946,544.512826710041,545.0044964663424,545.2885871933366,545.4601368001059,545.0439704659391,544.8344991182117,544.3184154978032,544.3527195462302,544.2995129285856,543.8575441221615,543.2168654393504,542.6977471232935,542.8787805420191,543.0524774922296,542.8148292640474,542.266965006953,542.214460028573,542.1386243833089,542.2756321912445,542.5144744562937,543.1294921966814,543.1863658371949,543.0377705467638,542.9928132385911,542.9569541862238,542.9348301997272,542.9445632995751,542.556653426456,542.7807092824713,542.5913144802773,541.8095964655746,541.9658581522823,541.8147934096469,541.7518864104873,541.4033275540867,540.9627269003961,541.7050703786551,542.0181097673365,541.9079439494519,541.9001410725039,541.7753003965829,541.7346717217736,540.7331916546175,540.8974375602535,541.1479628797134,541.185571789353,540.9150582197145,540.7560388948175,541.4548965328074,542.3270235841799,541.9680705489563,541.9289456109763,541.4782512414132,541.8421406240834,541.6227784195196,541.9579906777526,541.9584946713128,542.2570172182959,542.1180789194518,541.9042820046834,542.0902068254252,541.7835960180416,541.992340950705,541.9055747640847,542.116199971853,542.2056040734946,542.4998342110911,543.4640223014386,543.990438233902,544.186195060411,544.2826953059832,544.5788407443588,544.7748904176952,545.4093470118825,545.9384015729836,546.3507912473549,546.6473864502864,546.44395916499,547.1605057276252,547.7729477918381,548.4812204808953,549.2746990192182,549.5433333907716,550.0883646794827,550.8419717318898,552.2885205348872,552.7981555321875,553.521982706539,554.2230502407507,554.6163159626872,555.6275987511474,556.1606448403345,556.892520374927,556.6239934915077,555.9039463289698,555.2395648106556,555.6589665076804,555.184050424313,555.0694739218436,555.047199900327,555.7900372217591,556.162513601204,557.0373362465277,558.744671955417,559.9609120537382,559.7152264460677,557.9189669848522,556.2311443156699,554.6714539122127,552.975114814373,550.9244046763413,548.8639457648276,547.6166968258287,546.4474192003208,545.5586209359155,544.4294456298384,543.2541935821636,542.7346811912967,542.3787819730234,541.9822138343882,542.0610341894645,542.0794547614832,542.3381917025172,541.9580161769561,541.3790544667596,541.209212435141,540.7518035228572,541.0181860847883,540.8841863656749,541.1378778562389,541.0499366867649,540.5579004741838,540.4675956266176,540.4951251495261,540.7145782103335,540.2357431926287,538.7764528673356,537.7655252476779,535.700628766625,533.84035358577,531.0840648169983,527.9416487357796,524.7833889423575,523.7324957576236,526.2309024080736,533.8113749669585,544.7750094594603,559.8333414232764,580.6808437992305,606.2334263971502,633.3333001976962,656.4572039361594,671.4730942123244,672.991106572872,658.17559343419,629.9784850823379,598.2462258381058,569.2567747430086,546.8675907164743,532.0737665092942,525.4788578555389,526.6038392168789,530.8859585479404,535.1044993576937,537.5926539256327,537.6167095548158,536.6098169698519,535.6095180822033,534.9733401054901,535.5798980681003,536.080535860977,535.8573445456689,536.194968166878,535.9656956626444,536.2160778847866,536.4842688939523,536.4640822423034,536.3337453574718,536.0268064979421,535.7237509561772,535.6483673026077,535.9901623821748,536.1138583751815,536.0248527242958,535.9249504129782,535.1148904401382,535.6415642832617,535.4589941882073,535.5917373975559,535.6133931638931,535.1289710263472,535.4282669970369,535.338931861348,535.4449349776909,535.4522750986841,535.9603310019446,536.0187630031648,535.8892382028583,536.3617228857829,536.9158834903783,537.3427030707936,537.5735844673511,537.2958433941419,537.1255131345777,536.9873236221379,537.2837516155499,536.9866991883122,536.516043452264,535.8550334493581,535.118557433619,535.3119957430448,535.31058353667,535.3943893192521,535.2504720259028,535.2807000970756,535.0725929639028,535.4845631028599,535.5758641245504,536.0667903842855,536.1259744663664,536.3837107479017,536.7181548587018,536.8564752709098,537.0924447135917,536.9411619971265,536.7004026205884,536.384568026954,536.1012473685414,535.9390087636599,535.4966805611565,535.5689046329551,535.3254795323367,535.0784339570675,534.8295746276413,533.8850463344422,534.0656280457779,533.9407918751367,534.2100262579968,533.7534466429503,533.3072530421848,533.6361427067978,534.1576169737467,534.2467757188163,534.3449382457752,534.6153636656339,534.8499581344615,535.6892673630784,536.5126848436119,537.5993893873721,538.8366668302922,539.7256016720593,540.4818194951794,542.0421918885743,543.3657165363262,544.6774001788785,545.3853635114492,546.5023754194797,547.5013476232646,548.0283898365301,548.89525617152,549.7843633718878,550.1644133788658,550.4813114808967,550.432313288015,551.0121171154408,551.5062740682447,552.120178533427,552.3223902756988,552.6303363359589,552.3204351835616,552.6550192801556,553.19758201956,553.3437118452532,553.2926457667755,553.3595302952347,553.2075755396511,553.1799477266762,553.0808294413205,552.7939735615171,552.6189071717799,551.8559383279528,551.5235201885378,551.3063415654447,551.3950659592385,551.4650113393524,551.4227061309738,551.0443677408227,550.6683253632084,550.5002261733202,550.1449681626162,550.110970321453,549.6765571119291,549.4449476433738,548.7061165293654,548.7958220115631,549.0632793191158,549.3156638692326,549.0337085313676,549.0542704869679,548.8368627890877,549.1348107502115,549.0312341786566,548.9454556631855,548.9498683065946,548.3550884156133,547.579177134287,547.2569588150832,547.0456725832619,546.8406617372581,546.546122065725,546.1365703832192,545.9087007207727,545.7761136254883,545.9395915733769,546.1846450815709,546.2027189307787,545.5994115034006,545.4148759642693,545.5329378473302,545.7532705336325,545.7748392610295,545.4962332445169,545.7013921574612,545.7870663478016,546.2743599227779,546.1483054533207,546.429632143706,546.1829621987467,546.3588836966824,545.7302928292384,545.1574961839153,545.4070366473857,545.1581664222016,545.709406211029,545.0418800853116,545.1763007225079,545.5753604955783,545.9669443031687,546.5265054091203,547.3856504492156,547.7684619310204,548.3388538705949,549.400679201844,550.1289924569104,551.5488681045208,552.0407072217556,552.7270949572187,553.2076829028875,554.1173327178353,555.2179157047891,556.1344633247757,557.1297755196247,557.9096414915044,558.7745435620736,559.3416830198616,560.235494654108,560.3304430876414,559.9704097092405,559.2673712983537,558.1427299115397,557.9026775669558,557.8193184213135,557.7448746546298,558.5561514073605,559.3917124019101,560.6292632773916,561.4929339918698,561.0092532133419,559.9460342854063,557.676540141504,555.9622987545243,553.1956469806677,551.4105113312278,549.8904484253336,548.9932277183373,548.7273933394955,547.8891386102468,546.854464028768,546.782266393891,546.6376754954631,546.3554531066068,546.0740501182513,545.6648045428511,544.5242875171468,544.8371864609841,544.727210912708,544.5086230224031,543.6868943771954,543.1857898854782,543.0527147670617,542.8419383517577,542.8362019798053,543.0198230319351,543.2531765991981,542.9498072635122,542.7549526386896,542.459301924343,542.6781469271161,542.5952307323571,542.0281280256992,540.9742119875899,539.0632490201448,536.5330516653546,534.2403064284426,531.3580526436384,526.5915564127415,522.610689191484,521.1333171829169,523.3033039070389,528.350154033109,536.1005489636356,545.6250993360908,556.2743788288604,569.3173257465633,586.2166246545871,606.9233011235133,628.5821635155191,650.0343103065479,668.5463137326636,679.5848643333584,677.1164523494201,659.1067947881246,630.6805632244943,598.248250578597,569.3631537363003,546.3742392661532,532.9113499203165,527.421122163707,528.4840942167464,532.5723020348389,536.5118446199119,538.6049643522241,538.7202836306287,538.1553255572825,537.4717639902558,537.4267908924849,537.2810435788563,537.4472396175247,537.4108918181797,537.848113505135,538.2292960293911,537.4891707725458,537.5787644128611,536.8721881730943,536.4991233553486,536.566572862838,536.1497090211656,536.5166821087347,536.169786223941,535.8049063213987,536.2396171730961,536.7559649575832,536.9256521607623,537.1052036581609,537.15843278645,535.9907564631974,536.1031994986922,535.8358377716369,536.4903284910931,536.5210722494465,536.6529402762967,537.5198310856417,538.2489995062944,538.9283414195614,539.406440773138,539.6621723469534,539.3117107434206,539.1221167605318,539.1784608978197,539.2659549239069,538.8729792163684,538.2124388728976,537.6674024664239,537.2401381811293,537.0370543169638,537.0484993473108,537.1397233407638,537.0933591173705,537.1220612848232,536.7279651296384,536.5434195890048,536.76867357692,536.9872260651122,536.8925327177251,536.4040091460799,536.520206945258,536.6213675774452,536.828732877419,536.8366575368036,537.2394512958497,537.0976791883613,536.8688055762061,537.4564336762679,536.9250486363256,537.0206290813495,536.7315701920745,535.9498756418889,535.5958221386047,535.4888527154878,536.0606625115297,536.3086608400206,536.2298063076234,535.8158097743367,535.7048103925501,535.6940125086969,535.1123450088386,535.3721608003976,535.315043075759,535.2400814106879,535.263317859781,536.0848525922268,536.9362272130574,537.7580238924245,538.0358748515912,538.9960851795461,540.2094468135577,541.0032171024911,542.4998676080195,543.7627754222397,544.9764303937073,545.8774131329993,546.5940148170271,547.2144749313004,547.9787445651363,548.3679461079915,549.1983703222774,549.3323224628134,549.0954070805241,549.201360473063,549.8402296776666,550.1666154991827,550.1182032403376,550.4789092014613,550.4097340954145,550.4493154142968,551.2188611274653,551.1662488460513,551.2138465657656,550.9770996975503,550.5487314174436,551.1437606172863,550.9475156427952,550.858452302958,551.1762220160983,550.766265900171,550.5553891760345,550.0848077480972,550.127943142832,550.3644686008384,549.6050562716014,549.2631167530299,548.4277303741801,547.910584242876,548.1214521878737,548.133603008522,547.807175671676,547.7799727257436,547.9123606081654,548.412271789901,548.3977308097997,548.7845244197358,548.6356569823326,548.4928727695032,547.9638471614364,547.8862683928596,547.9118415137067,547.3554756590081,547.7194847251742,547.0581541273908,546.3034387790931,545.4825802597813,545.6040433224778,545.791614939304,545.0880084285977,544.7865157135374,544.1623618668151,543.9283727864635,543.6121563132642,543.2211292445661,543.5144732037677,542.7780753292561,542.8472896561342,543.0013438126507,543.4318844376813,543.7213466780255,543.8110030043126,543.9593566205599,544.0037532723385,544.7536327993541,544.7875453812705,545.0342354461084,544.6730738240185,544.6373879638455,544.3057062292701,543.9281025577743,544.2710746989492,544.4092327363072,545.0224247906929,544.6031729493503,544.3882996133464,544.7652897605678,545.0405790074867,545.8090116939278,545.9696823487661,545.9013568787952,546.125704015523,547.0576833027751,548.3568280880107,549.3294372683065,549.9614495223295,551.0584448901527,552.1118078464214,553.159101619239,554.1189879426774,554.679510408959,555.1436073646275,555.3393492409039,556.0779721711797,557.0320286435826,557.9863766085375,558.7210332985586,559.5421620018619,559.332021363814,559.0693189041823,558.3674543911523,557.6484005020217,557.1020321418484,556.4240386348492,556.4694377712973,556.1994318279416,556.907832956102,558.0448613333981,559.7977198738207,561.4290358118722,561.7810559098434,561.3019747057482,560.482267618266,558.7603973040226,557.3122634325123,555.4181020514804,553.3362497443985,551.634535992466,549.9769225737559,549.2160963102693,547.9209046663815,546.2957645356364,544.3477887960746,542.9121261558942,542.2653659767873,541.9129024934613,541.5133026021074,541.7524256987839,541.3821938536483,541.7586904687606,541.0840242441619,541.025468156627,541.1498598789009,540.4799881698951,540.4250984540828,539.8917780548165,539.951390364284,540.0050942539012,540.1623325351511,540.4782153168883,540.0755594737478,539.9663704028014,539.5656214008754,538.8875950435269,537.851331918108,534.9826760880471,532.7373202573319,530.0987727646057,527.672115196419,524.2328891887745,519.9138113252411,517.0672545633813,515.7507578480789,517.2681585939052,522.088356424031,530.3955830622681,542.7714944754167,559.086282479815,579.3195062482282,602.9169388655121,626.575509743438,647.1665134093795,659.4467624626814,660.1287384635382,646.2882768527725,620.4197099534097,591.3274999429109,564.9194506162344,544.2458162085568,530.7399623213059,525.117378047879,525.3824946431557,529.2797449081434,533.3617301935479,535.7059344942985,535.9576358856489,534.7156229937603,533.8489665762302,533.7205054928256,534.1025667278618,533.6827351161837,533.896480154657,533.7374372966121,533.9430137605931,533.8318883472047,533.7454222662375,534.1422879087348,533.929997521031,534.0203695098099,533.316501722349,533.7422710535919,534.3424286142241,534.6324215789497,534.4973003760538,533.7734538327417,533.6506062272219,532.9551894685405,532.8245514258247,532.3149449334809,532.2240627056096,532.6015322619662,532.3539859602289,533.3840461356444,533.6560714001536,534.2890150768199,534.5857674582594,534.7865556984448,535.0649272115339,534.4808831577394,534.8396425698602,534.7121111952081,534.6057940083608,534.5148320928649,533.7423368487985,533.8792641642453,533.2272830845261,533.2015244900603,533.1717379659752,532.4388926723198,531.8040648811436,531.6078248452989,531.8887977572601,531.9544340939001,531.415299287504,531.3664789567448,531.1883582529647,530.9093315825813,530.9583048913153,531.1081113514444,531.6234707482474,531.9106211586724,531.9745080133871,532.3212491918467,532.85310197682,533.3658524455514,533.0787333606861,532.4203277505853,532.0980367637255,532.1091973851317,531.2463926147161,530.7523656062579,530.3686839939792,529.8712661818095,528.8826047109053,528.6439343446166,528.6740572581217,528.8779726755284,529.0525082414508,529.093446138469,528.9829040670907,529.365955580967,530.0313606648248,530.3736912653599,531.1076321141645,532.0069228153797,532.9557218779653,533.8762335631153,534.7839899182007,535.9634749855588,536.920682841989,537.2749948406586,537.7590311925239,538.1648913110535,538.9958462414108,539.6442276786183,539.9080504367869,539.8763976569804,540.2705293337575,541.1652474326223,541.6567773730618,542.4561498883395,543.1287449157619,543.4661275528229,543.7063476418696,543.5792926314073,544.2831668684901,544.6918160194825,544.8136624642964,544.9462857187227,544.6842888148801,545.2290390057065,545.9817453988456,545.9172489298775,546.1620696065984,545.2012804122046,544.9754308323385,544.4881112410069,544.5627929488987,544.7305157479477,544.2020934408803,543.8520527894464,543.508221691591,543.4572161690618,543.2124950080537,542.6883960450484,542.36408091484,541.3384795085701,541.2469666177211,541.4574790952882,542.1452298909267,542.3723881986326,542.771972834443,542.7002981681494,542.3276315906281,541.884123965861,541.5971792621143,541.5359397089403,540.9977413652153,540.3828692053621,539.9801073246254,539.2753081566871,539.2914017119585,539.2036286118076,538.793334249478,538.5728109972722,538.0431758136399,538.3047824307922,538.5541133948504,538.3865891556984,538.5069264103873,538.0102206397316,537.911868398427,537.8315141000453,538.3676440647856,538.2685913193311,538.180508073884,538.1719937021765,537.9589874369889,538.1526137701417,537.8633652848739,537.6836265865968,537.908470660961,538.2216468130218,538.2085138442203,538.1057188405164,538.0936011627342,538.4731024339274,538.444870845279,537.7337096436662,537.1574498536938,537.304863303035,537.24430019602,537.8057403079154,537.7376968347835,537.6374974752276,537.3134950941509,537.7130635045951,537.9896253391664,538.5804310876038,538.6382943749628,538.5882545299762,538.6245165581848,538.1789439055053,538.6694779771884,538.9650256327092,539.4486890698217,539.9056673428295,539.9416098035973,540.8534765086927,541.7442765821175,542.4053140346472,542.8574827864059,543.609892014227,544.6264779036956,545.3378278339453,545.958150271354,547.0805084595187,548.0693571758629,548.2463839177811,548.3653886170769,548.8140105779203,549.8712175625922,550.3316821074384,550.5185658608596,550.1049567637056,549.4179783563742,549.0877799674515,549.4269518472086,549.77218836022,549.6095072352521,549.5342797116748,550.4284646439097,552.0614304100868,553.0297064819429,552.6668305758567,551.4139644088266,549.9199801739688,547.3454043974659,544.6812056980971,541.6986307372894,539.3470407292176,537.650386913198,536.2638665762366,534.8179434672979,534.7111065788381,535.2604827867606,535.7648106838835,535.6590894953492,535.6893283493937,535.4457591052887,535.1090264789661,534.716599294356,534.6690098638323,534.7185138454081,534.1670545706075,533.9309897973417,534.1898916314227,534.2162270145694,534.1388661570326,534.0678485414513,534.3728088429092,533.9507178906307,533.8626765776704,533.7803540995153,534.1982797023911,533.9917581443442,533.8108106792724,532.8178060398404,531.870049566732,529.865564793371,527.982200538822,525.8826784190982,523.179085032107,519.6610210824936,515.5714725067055,512.8861771210388,513.4409782919278,517.3630632982865,524.3538643849773,534.8192222198531,551.7568347341958,574.0133018535379,598.8846856754575,622.608604556599,642.195867548018,652.2270352816097,647.5035252542389,629.5290140842039,604.1967976637665,576.3173880084082,550.4113119853887,530.4020981501997,519.4571695054018,516.4607617343418,518.547563530813,522.0360547546927,525.5548176162276,527.2971816429263,527.60518103605,527.0479600709647,526.6229402439569,526.3935959694937,525.5516570518304,525.2389332813852,525.6572456691185,526.5267813892108,526.9315893319481,527.4046896638254,527.7120380332257,527.4883827956335,527.5968259393079,527.443323711803,527.3177369928103,526.6220846263609,525.7765822967042,525.6621723216506,525.4589050025336,525.758125937997,525.8361064907377,525.9754053975189,526.1654642424783,526.0402996464368,525.7112299142416,526.1135747154294,525.9997013041949,525.6984865088609,525.2218353955418,524.9627586080867,524.8001821733943,524.7658518004961,524.927544275681,524.96609138734,524.7788785877502,524.488072588767,524.7036780679983,524.8067867546231,525.4128246306761,525.7904879685093,525.6399074994713,525.7823157539361,526.1283838696393,526.8623040138884,527.0898300447279,527.3248629409168,527.1406151688445,526.572700198099,526.5504843816764,526.1660753632868,525.9122630973588,525.6828930895367,525.2557791935021,524.8216252437319,524.8080682006292,525.4759685587621,525.1977832856919,525.0220387758841,525.0337257967651,525.1231207691135,524.8073681406892,524.9407981615929,525.1536474177979,525.4470669857021,524.8263999262554,524.541235968398,524.3545425770128,523.9838553562417,523.5423449593195,522.6375810606387,521.9470220039194,520.9767327021434,520.6456231958869,520.0125348039046,520.4890253116754,520.1964530991235,520.0839815443634,520.1286191022524,520.3544693069341,520.9373725817827,521.2149552182773,521.6640301123196,522.2850276839217,522.8772072548381,523.951070357443,525.3003854686601,526.5961139561408,528.0495097639498,529.0612856599485,530.6520817396929,532.0170311705805,533.7811988854845,535.1219446390171,536.3683228952639,537.6029710334981,537.8554265688077,538.4635067988964,539.3293914032258,540.0190190650154,540.3364842565278,540.1998085953763,540.5825894940479,541.4766353592904,541.8692731614872,542.3767604566636,542.6747466466568,543.1509997440928,543.2225792315907,543.4352820379754,543.6569815941511,544.1929705372768,544.0170593427457,544.073756362813,543.131197506252,543.1464017328381,543.0719307259037,543.2279827164725,543.267436547786,542.7077525385375,542.6289247869232,542.5547986342187,542.3806552388032,542.5230216126865,541.9602423594415,541.6976178683964,541.7441832143227,542.1847139853176,542.7945110479917,543.0809365762263,543.2249018653874,543.3485376655378,542.9683199429769,542.929139645094,542.822408215239,542.3353346332883,542.0798129948932,541.5432492284255,541.5145027641531,541.1852346082001,541.067093288552,541.3305053557888,541.1679707377441,540.8867346622782,540.6181230673718,540.3464786444133,540.4825093766202,540.2249091755787,539.8720622536869,540.0227958741165,539.7525622337791,539.782258054311,539.8172706204265,540.137652548184,540.9243730334592,541.0792941754919,541.1129575784064,541.3464226022015,541.869965003113,541.9833493803665,542.430400563021,542.4628452436447,542.1953508603827,542.0529044474738,542.8437574752556,542.7007370705112,542.0872202451367,541.4060014950621,541.2454689633281,540.9858407375353,540.7787365744214,540.3748365992259,540.6604557815214,540.2977330671984,540.0451198620048,539.9921559057814,539.9314849392135,540.0536525222141,540.2839926851793,540.5846797042802,540.7577017121665,540.4194244218473,541.4950274477156,542.0229587014405,542.6360104006275,543.0334438658101,543.3196567581278,544.1746451413139,544.940664256634,545.8947789788745,546.531840549962,547.0569207157545,547.6700575178731,548.1952868990451,548.8325557669244,549.785666927522,550.422975608644,550.9546728639996,551.4904420966932,551.8256843368109,552.8760279083165,553.3215098592768,553.7765831467452,553.5354876326079,553.0332353558122,553.772857804862,553.9280163100348,554.2976909874968,554.3716355954592,554.5298281973168,555.6549985552415,556.4608915177225,556.7342477573383,555.7124199188462,553.7453807026768,551.9846030774087,550.0681228513005,547.6877612846215,545.6400856082573,544.3437023237868,543.2137862427313,541.5523270844653,540.678116872807,539.6285990933976,539.4291734191406,539.0748998643728,538.6818441832909,538.5253683283497,538.1330057555725,538.3077854224637,538.6638548222976,537.9844070744014,538.3192789298458,538.1295833997708,538.1297545175611,537.7386560628061,537.8849160007808,538.1898905544618,538.296359973231,537.688021144558,537.4101078132082,537.626535225688,537.4394542644427,537.3769760789436,536.722945273658,536.071199067203,534.8381445045032,533.8775640405624,531.4556585517566,529.0517244281159,526.535285470393,523.4120811502335,519.1833843179469,515.8180933040778,514.9999715664617,517.8025592095446,523.7391955225869,533.8228398039691,546.590867029668,565.3522283433886,588.234615504542,612.9130126897923,636.3543218314321,654.927747730059,665.4109036950392,663.2079699274568,646.659302206311,620.5719877304851,589.9611044355324,562.0094366002588,540.1795099549977,526.3309329536207,521.1473514162553,521.3185832319668,524.9507092921451,529.2036456575509,531.0524388724231,531.9163635764829,531.6779129684716,531.1599464816464,530.5494846221713,530.0821926739403,529.6307049838645,529.7449879134953,529.6416341662441,530.0175497820144,530.0441465240222,529.446048831518,529.7552816391353,529.3547669528534,529.6691103135229,529.9865322869475,530.0894129988012,530.1572447904371,530.3371466328718,530.2880276488709,530.7570817821036,530.8185543073457,530.5820972419185,530.8608546193445,530.434669220021,530.3273371414633,530.8488243734955,530.447310870188,530.1540501887745,529.8893904103029,529.9166543507888,530.0371884903225,530.1777702844813,531.0912473137666,531.0443874575169,531.2866376051563,530.9181384424378,530.8740909448322,531.0392749118146,530.8418735319121,530.8519992281924,530.6737311470405,530.6859515118103,530.1953584834616,530.0375543048791,530.4777702662309,530.496481714329,529.8053441859645,529.4493745522568,529.6866737488169,530.10421777662,529.9228954011006,529.7515747167621,529.9542631902222,529.4290187583239,529.4419015078486,529.5750173212873,529.8924112252779,529.9853693998521,530.0838140893704,530.1510743228182,530.7156156820698,531.0585857640307,531.500277037093,532.1245316552308,531.922495776938,531.433924704232,531.3980092531237,531.3810380786691,531.2870000265904,530.7288766080223,529.7885575664682,529.2708259233564,529.0771850898448,529.492377739286,529.5821088536511,529.2394472413697,529.0669027576247,528.6770989159112,528.497103224608,528.1468669503419,528.2186290455073,527.5696699553002,527.8445315954166,527.5861599614414,528.0317071245996,528.5374651158868,528.7215233123679,529.2639306445144,529.8929606920595,530.1776206555287,530.870324978982,531.5536819858274,532.5120740521545,533.4496668817724,533.9718315722869,534.4821210264488,535.3015312240755,537.1141387621631,538.4840355266628,539.3323170944182,539.9642928183116,541.3901842287186,542.2857515784863,543.1271709376703,543.5950141671199,544.1818793134847,544.770999988726,545.1019592007257,545.4611488196136,545.7444499255164,546.0369781375966,546.544223196391,546.4555620360078,545.9878818942439,546.2615452405123,546.2356904747625,546.1257548579042,546.0466782748285,545.8671224628876,545.8731604344553,545.5925796747581,545.6247352147583,545.9497861969157,545.7546308008114,545.5602553839152,544.9759006364421,544.8067345883579,544.947634619678,544.8977421985398,544.2405866286533,543.8065700664165,543.5650365949178,543.4271214945898,543.7031471508442,543.762876903229,543.5867623895001,543.8977527733459,543.5811169644246,543.7734171909328,543.9699036889283,544.2595523496434,544.3259128516363,544.2045048477216,543.473335453557,543.3883395404257,543.0174177478508,543.0795244779404,541.9418438966253,541.8549769441802,541.235894869649,541.1435171031878,541.7372121354209,541.0043277525468,541.2512035597506,540.9813922289723,540.5941173610062,540.2215873481151,539.9973685874804,539.8477165457339,539.6178908964346,539.2860659630614,538.1514685329587,538.3549744737165,538.6370941794047,538.5976252977213,539.1486385776568,539.0555099469271,539.3103078762286,539.6625412061031,539.4112688547682,539.8705866769159,539.5344892719528,538.9105403057016,538.8305286842279,538.6721293103218,539.009086287544,538.6521613070126,538.4962777052597,538.4169908352817,537.8376677277291,538.3793908068586,538.5108755808931,539.217939867199,539.181856759102,539.443613462911,540.3633161761519,541.6641199076871,542.7064576913475,543.4320318001401,544.0195230480881,545.0907275688294,545.3543569991955,546.16984514462,546.3966757719563,547.1484435733655,547.6919975471017,547.861934048188,548.3365551957386,548.8282196931825,549.5066424971212,550.6887325509335,550.9388958007419,551.0850477131141,551.4476230872455,551.8166529175421,551.9011523965212,551.7405314042418,551.1004496240668,550.7996795285192,550.6320767064555,550.7913055170098,551.1467978609853,551.3764845381481,552.5626827924443,553.974532629248,554.4074098331082,554.3266046173035,553.7676142794876,552.2480577924205,550.8637890424216,549.019326221763,546.1887304023303,544.1956241130789,542.5742236213994,541.8579153299504,540.708209015574,539.1237648758835,538.0770131522057,538.0829437002494,537.8075076963069,537.6100280779891,537.4649371248682,537.2478785124191,536.8893352444084,536.7490156672004,536.5019402686557,536.7573446591224,536.4927242824097,535.9304819939102,535.3784246564352,535.4469542069735,535.6997035100575,536.2525855675108,535.8645925032557,535.8678869777883,535.4434138617208,535.6435908789833,536.2463965105371,536.4467059633859,536.5176002903793,536.1851146247498,535.7480295865982,534.7428076512174,533.0179870941835,529.5894230376435,526.6358319002804,523.1132960365039,518.8450327140085,515.139921460869,513.8338247425347,516.3216046572902,522.9373160194395,532.2461150202929,546.1760609049787,565.2242539327733,589.2547324732612,614.0080760824626,637.3545380793116,656.5991169263607,668.8779641252916,669.4952786156657,655.6832513085456,630.6994925472413,600.2322448238448,570.7505884289707,546.9569572137866,530.1838732838805,521.9588421851139,521.0958747032203,524.3526932092514,527.9725879702374,530.9218064324149,531.9849097749881,532.2836063954944,531.7242198108806,530.5556434807993,530.4264907052711,529.6512564916284,529.4679391557962,529.6087225177812,528.9144973824363,529.0965546873545,528.6630514882502,528.8124617384192,528.545235609288,528.5984099547126,528.8142143260987,528.5283313441616,527.935067351366,527.8789370707186,528.3122519976471,528.3265598955005,528.4509426170301,528.7548120533869,529.213824818286,529.3470804309075,529.3953390092445,529.8419000535573,529.9723521817309,530.0114751753136,529.4715926574622,528.7653670461345,528.5968656442901,528.5591173647535,528.5297791056023,528.6038639090877,528.8472503465067,528.143156181488,528.5658416546281,528.2655054401345,528.5787191234078,528.0799763626918,527.8183400618825,527.7345808678626,527.5761439072012,527.5106119838476,527.5640173408257,527.9898152919191,527.1812415304172,527.1089084972895,527.4322702677852,527.5361873535883,527.8375788529501,527.7451906748985,528.1169932176745,528.4665889816553,528.8148730459616,529.4509387613429,530.0702707659233,530.054016761372,529.2571655841873,529.0176367540607,529.1074985686557,529.22467057829,528.5669505876717,528.5413038963568,528.2770969807482,527.9141239694138,527.173792699376,527.4763365933217,527.6308672930393,527.3763891232052,526.7214245160822,526.6810594887488,527.2056961492801,527.2192281714821,527.4398101275601,527.1366390773424,527.4158783492792,526.8791374062529,526.5954653434043,526.826653484808,527.1573113169458,527.1562777049655,527.2692577371812,527.1497517206349,527.9220374017732,528.267268205925
